3655.71906,0.00209
3653.78890,0.00211
3651.85875,0.00212
3649.92859,0.00211
3647.99843,0.00211
3646.06827,0.00211
3644.13811,0.00210
3642.20796,0.00210
3640.27780,0.00211
3638.34764,0.00211
3636.41748,0.00211
3634.48733,0.00211
3632.55717,0.00211
3630.62701,0.00190
3628.69685,0.00172
3626.76669,0.00157
3624.83654,0.00145
3622.90638,0.00136
3620.97622,0.00131
3619.04606,0.00127
3617.11590,0.00127
3615.18575,0.00135
3613.25559,0.00149
3611.32543,0.00172
3609.39527,0.00206
3607.46511,0.00251
3605.53496,0.00308
3603.60480,0.00376
3601.67464,0.00449
3599.74448,0.00518
3597.81433,0.00582
3595.88417,0.00637
3593.95401,0.00685
3592.02385,0.00725
3590.09369,0.00762
3588.16354,0.00795
3586.23338,0.00826
3584.30322,0.00858
3582.37306,0.00889
3580.44290,0.00915
3578.51275,0.00930
3576.58259,0.00938
3574.65243,0.00940
3572.72227,0.00940
3570.79211,0.00939
3568.86196,0.00944
3566.93180,0.00955
3565.00164,0.00979
3563.07148,0.01014
3561.14133,0.01055
3559.21117,0.01099
3557.28101,0.01141
3555.35085,0.01181
3553.42069,0.01220
3551.49054,0.01260
3549.56038,0.01300
3547.63022,0.01341
3545.70006,0.01385
3543.76990,0.01430
3541.83975,0.01476
3539.90959,0.01520
3537.97943,0.01561
3536.04927,0.01595
3534.11911,0.01620
3532.18896,0.01639
3530.25880,0.01654
3528.32864,0.01668
3526.39848,0.01680
3524.46833,0.01697
3522.53817,0.01719
3520.60801,0.01747
3518.67785,0.01778
3516.74769,0.01809
3514.81754,0.01836
3512.88738,0.01861
3510.95722,0.01883
3509.02706,0.01905
3507.09690,0.01929
3505.16675,0.01954
3503.23659,0.01981
3501.30643,0.02010
3499.37627,0.02041
3497.44611,0.02073
3495.51596,0.02105
3493.58580,0.02134
3491.65564,0.02160
3489.72548,0.02185
3487.79533,0.02211
3485.86517,0.02237
3483.93501,0.02265
3482.00485,0.02294
3480.07469,0.02323
3478.14454,0.02354
3476.21438,0.02384
3474.28422,0.02413
3472.35406,0.02439
3470.42390,0.02461
3468.49375,0.02482
3466.56359,0.02502
3464.63343,0.02521
3462.70327,0.02539
3460.77311,0.02557
3458.84296,0.02577
3456.91280,0.02598
3454.98264,0.02618
3453.05248,0.02637
3451.12232,0.02656
3449.19217,0.02674
3447.26201,0.02692
3445.33185,0.02710
3443.40169,0.02731
3441.47154,0.02753
3439.54138,0.02777
3437.61122,0.02802
3435.68106,0.02827
3433.75090,0.02853
3431.82075,0.02879
3429.89059,0.02903
3427.96043,0.02926
3426.03027,0.02948
3424.10011,0.02972
3422.16996,0.02993
3420.23980,0.03015
3418.30964,0.03038
3416.37948,0.03061
3414.44932,0.03083
3412.51917,0.03104
3410.58901,0.03123
3408.65885,0.03141
3406.72869,0.03158
3404.79854,0.03174
3402.86838,0.03190
3400.93822,0.03206
3399.00806,0.03222
3397.07790,0.03238
3395.14775,0.03252
3393.21759,0.03266
3391.28743,0.03282
3389.35727,0.03297
3387.42711,0.03309
3385.49696,0.03325
3383.56680,0.03342
3381.63664,0.03358
3379.70648,0.03374
3377.77632,0.03391
3375.84617,0.03409
3373.91601,0.03428
3371.98585,0.03448
3370.05569,0.03467
3368.12554,0.03486
3366.19538,0.03505
3364.26522,0.03526
3362.33506,0.03546
3360.40490,0.03567
3358.47475,0.03588
3356.54459,0.03610
3354.61443,0.03631
3352.68427,0.03653
3350.75411,0.03674
3348.82396,0.03695
3346.89380,0.03713
3344.96364,0.03731
3343.03348,0.03745
3341.10332,0.03759
3339.17317,0.03770
3337.24301,0.03782
3335.31285,0.03789
3333.38269,0.03796
3331.45254,0.03800
3329.52238,0.03804
3327.59222,0.03805
3325.66206,0.03807
3323.73190,0.03808
3321.80175,0.03810
3319.87159,0.03810
3317.94143,0.03811
3316.01127,0.03813
3314.08111,0.03816
3312.15096,0.03821
3310.22080,0.03827
3308.29064,0.03831
3306.36048,0.03836
3304.43032,0.03843
3302.50017,0.03849
3300.57001,0.03855
3298.63985,0.03859
3296.70969,0.03864
3294.77954,0.03869
3292.84938,0.03872
3290.91922,0.03875
3288.98906,0.03876
3287.05890,0.03876
3285.12875,0.03875
3283.19859,0.03871
3281.26843,0.03866
3279.33827,0.03859
3277.40811,0.03851
3275.47796,0.03840
3273.54780,0.03828
3271.61764,0.03817
3269.68748,0.03802
3267.75732,0.03788
3265.82717,0.03771
3263.89701,0.03753
3261.96685,0.03733
3260.03669,0.03713
3258.10653,0.03691
3256.17638,0.03668
3254.24622,0.03645
3252.31606,0.03622
3250.38590,0.03598
3248.45575,0.03575
3246.52559,0.03553
3244.59543,0.03530
3242.66527,0.03507
3240.73511,0.03485
3238.80496,0.03464
3236.87480,0.03443
3234.94464,0.03423
3233.01448,0.03402
3231.08432,0.03383
3229.15417,0.03364
3227.22401,0.03347
3225.29385,0.03330
3223.36369,0.03313
3221.43353,0.03297
3219.50338,0.03282
3217.57322,0.03267
3215.64306,0.03253
3213.71290,0.03237
3211.78275,0.03223
3209.85259,0.03210
3207.92243,0.03197
3205.99227,0.03183
3204.06211,0.03169
3202.13196,0.03155
3200.20180,0.03140
3198.27164,0.03125
3196.34148,0.03109
3194.41132,0.03092
3192.48117,0.03076
3190.55101,0.03060
3188.62085,0.03044
3186.69069,0.03028
3184.76053,0.03012
3182.83038,0.02997
3180.90022,0.02982
3178.97006,0.02968
3177.03990,0.02953
3175.10975,0.02939
3173.17959,0.02927
3171.24943,0.02913
3169.31927,0.02900
3167.38911,0.02887
3165.45896,0.02873
3163.52880,0.02861
3161.59864,0.02849
3159.66848,0.02836
3157.73832,0.02823
3155.80817,0.02807
3153.87801,0.02792
3151.94785,0.02777
3150.01769,0.02762
3148.08753,0.02746
3146.15738,0.02728
3144.22722,0.02711
3142.29706,0.02694
3140.36690,0.02677
3138.43675,0.02659
3136.50659,0.02641
3134.57643,0.02624
3132.64627,0.02608
3130.71611,0.02591
3128.78596,0.02573
3126.85580,0.02557
3124.92564,0.02541
3122.99548,0.02526
3121.06532,0.02512
3119.13517,0.02501
3117.20501,0.02490
3115.27485,0.02479
3113.34469,0.02470
3111.41453,0.02463
3109.48438,0.02455
3107.55422,0.02448
3105.62406,0.02441
3103.69390,0.02436
3101.76375,0.02430
3099.83359,0.02425
3097.90343,0.02422
3095.97327,0.02416
3094.04311,0.02411
3092.11296,0.02408
3090.18280,0.02402
3088.25264,0.02397
3086.32248,0.02392
3084.39232,0.02385
3082.46217,0.02379
3080.53201,0.02373
3078.60185,0.02364
3076.67169,0.02358
3074.74153,0.02350
3072.81138,0.02342
3070.88122,0.02336
3068.95106,0.02330
3067.02090,0.02322
3065.09074,0.02314
3063.16059,0.02306
3061.23043,0.02299
3059.30027,0.02292
3057.37011,0.02283
3055.43996,0.02277
3053.50980,0.02269
3051.57964,0.02261
3049.64948,0.02252
3047.71932,0.02241
3045.78917,0.02232
3043.85901,0.02219
3041.92885,0.02208
3039.99869,0.02196
3038.06853,0.02182
3036.13838,0.02169
3034.20822,0.02155
3032.27806,0.02140
3030.34790,0.02128
3028.41774,0.02117
3026.48759,0.02105
3024.55743,0.02093
3022.62727,0.02083
3020.69711,0.02071
3018.76696,0.02063
3016.83680,0.02055
3014.90664,0.02047
3012.97648,0.02038
3011.04632,0.02032
3009.11617,0.02026
3007.18601,0.02019
3005.25585,0.02014
3003.32569,0.02009
3001.39553,0.02003
2999.46538,0.02000
2997.53522,0.01997
2995.60506,0.01998
2993.67490,0.01998
2991.74474,0.01999
2989.81459,0.02004
2987.88443,0.02011
2985.95427,0.02020
2984.02411,0.02031
2982.09396,0.02044
2980.16380,0.02059
2978.23364,0.02077
2976.30348,0.02095
2974.37332,0.02112
2972.44317,0.02130
2970.51301,0.02150
2968.58285,0.02171
2966.65269,0.02191
2964.72253,0.02211
2962.79238,0.02229
2960.86222,0.02248
2958.93206,0.02267
2957.00190,0.02288
2955.07174,0.02310
2953.14159,0.02331
2951.21143,0.02353
2949.28127,0.02377
2947.35111,0.02403
2945.42096,0.02431
2943.49080,0.02461
2941.56064,0.02490
2939.63048,0.02520
2937.70032,0.02551
2935.77017,0.02582
2933.84001,0.02610
2931.90985,0.02637
2929.97969,0.02662
2928.04953,0.02683
2926.11938,0.02702
2924.18922,0.02717
2922.25906,0.02727
2920.32890,0.02733
2918.39874,0.02735
2916.46859,0.02732
2914.53843,0.02724
2912.60827,0.02714
2910.67811,0.02703
2908.74796,0.02689
2906.81780,0.02675
2904.88764,0.02661
2902.95748,0.02644
2901.02732,0.02629
2899.09717,0.02613
2897.16701,0.02600
2895.23685,0.02587
2893.30669,0.02575
2891.37653,0.02566
2889.44638,0.02556
2887.51622,0.02547
2885.58606,0.02540
2883.65590,0.02534
2881.72574,0.02530
2879.79559,0.02527
2877.86543,0.02526
2875.93527,0.02525
2874.00511,0.02524
2872.07495,0.02523
2870.14480,0.02521
2868.21464,0.02520
2866.28448,0.02517
2864.35432,0.02514
2862.42417,0.02508
2860.49401,0.02503
2858.56385,0.02493
2856.63369,0.02480
2854.70353,0.02463
2852.77338,0.02445
2850.84322,0.02424
2848.91306,0.02398
2846.98290,0.02371
2845.05274,0.02344
2843.12259,0.02315
2841.19243,0.02285
2839.26227,0.02254
2837.33211,0.02226
2835.40195,0.02199
2833.47180,0.02173
2831.54164,0.02148
2829.61148,0.02125
2827.68132,0.02104
2825.75117,0.02087
2823.82101,0.02071
2821.89085,0.02059
2819.96069,0.02048
2818.03053,0.02036
2816.10038,0.02026
2814.17022,0.02017
2812.24006,0.02010
2810.30990,0.02004
2808.37974,0.01996
2806.44959,0.01989
2804.51943,0.01982
2802.58927,0.01974
2800.65911,0.01965
2798.72895,0.01959
2796.79880,0.01952
2794.86864,0.01945
2792.93848,0.01939
2791.00832,0.01933
2789.07817,0.01928
2787.14801,0.01923
2785.21785,0.01919
2783.28769,0.01914
2781.35753,0.01910
2779.42738,0.01906
2777.49722,0.01902
2775.56706,0.01899
2773.63690,0.01895
2771.70674,0.01890
2769.77659,0.01887
2767.84643,0.01886
2765.91627,0.01882
2763.98611,0.01877
2762.05595,0.01873
2760.12580,0.01869
2758.19564,0.01863
2756.26548,0.01858
2754.33532,0.01854
2752.40517,0.01850
2750.47501,0.01847
2748.54485,0.01844
2746.61469,0.01840
2744.68453,0.01837
2742.75438,0.01835
2740.82422,0.01831
2738.89406,0.01828
2736.96390,0.01825
2735.03374,0.01822
2733.10359,0.01819
2731.17343,0.01817
2729.24327,0.01814
2727.31311,0.01811
2725.38295,0.01806
2723.45280,0.01803
2721.52264,0.01802
2719.59248,0.01798
2717.66232,0.01795
2715.73217,0.01790
2713.80201,0.01787
2711.87185,0.01783
2709.94169,0.01780
2708.01153,0.01778
2706.08138,0.01773
2704.15122,0.01770
2702.22106,0.01766
2700.29090,0.01764
2698.36074,0.01763
2696.43059,0.01759
2694.50043,0.01756
2692.57027,0.01754
2690.64011,0.01751
2688.70995,0.01749
2686.77980,0.01747
2684.84964,0.01745
2682.91948,0.01743
2680.98932,0.01742
2679.05917,0.01739
2677.12901,0.01737
2675.19885,0.01737
2673.26869,0.01734
2671.33853,0.01732
2669.40838,0.01730
2667.47822,0.01730
2665.54806,0.01728
2663.61790,0.01727
2661.68774,0.01725
2659.75759,0.01723
2657.82743,0.01721
2655.89727,0.01719
2653.96711,0.01718
2652.03695,0.01716
2650.10680,0.01712
2648.17664,0.01709
2646.24648,0.01707
2644.31632,0.01703
2642.38616,0.01702
2640.45601,0.01700
2638.52585,0.01696
2636.59569,0.01694
2634.66553,0.01692
2632.73538,0.01690
2630.80522,0.01687
2628.87506,0.01683
2626.94490,0.01680
2625.01474,0.01678
2623.08459,0.01676
2621.15443,0.01674
2619.22427,0.01671
2617.29411,0.01668
2615.36395,0.01663
2613.43380,0.01661
2611.50364,0.01659
2609.57348,0.01656
2607.64332,0.01653
2605.71316,0.01650
2603.78301,0.01647
2601.85285,0.01644
2599.92269,0.01642
2597.99253,0.01640
2596.06238,0.01639
2594.13222,0.01637
2592.20206,0.01635
2590.27190,0.01632
2588.34174,0.01631
2586.41159,0.01630
2584.48143,0.01628
2582.55127,0.01626
2580.62111,0.01624
2578.69095,0.01622
2576.76080,0.01618
2574.83064,0.01615
2572.90048,0.01612
2570.97032,0.01610
2569.04016,0.01608
2567.11001,0.01605
2565.17985,0.01603
2563.24969,0.01599
2561.31953,0.01598
2559.38938,0.01597
2557.45922,0.01593
2555.52906,0.01592
2553.59890,0.01590
2551.66874,0.01586
2549.73859,0.01585
2547.80843,0.01586
2545.87827,0.01584
2543.94811,0.01583
2542.01795,0.01584
2540.08780,0.01583
2538.15764,0.01584
2536.22748,0.01585
2534.29732,0.01584
2532.36716,0.01585
2530.43701,0.01585
2528.50685,0.01587
2526.57669,0.01587
2524.64653,0.01588
2522.71638,0.01587
2520.78622,0.01588
2518.85606,0.01588
2516.92590,0.01587
2514.99574,0.01583
2513.06559,0.01579
2511.13543,0.01575
2509.20527,0.01571
2507.27511,0.01567
2505.34495,0.01562
2503.41480,0.01558
2501.48464,0.01555
2499.55448,0.01552
2497.62432,0.01549
2495.69416,0.01545
2493.76401,0.01542
2491.83385,0.01540
2489.90369,0.01537
2487.97353,0.01536
2486.04338,0.01534
2484.11322,0.01531
2482.18306,0.01530
2480.25290,0.01527
2478.32274,0.01525
2476.39259,0.01526
2474.46243,0.01526
2472.53227,0.01524
2470.60211,0.01524
2468.67195,0.01523
2466.74180,0.01522
2464.81164,0.01522
2462.88148,0.01522
2460.95132,0.01522
2459.02116,0.01522
2457.09101,0.01521
2455.16085,0.01521
2453.23069,0.01522
2451.30053,0.01520
2449.37037,0.01520
2447.44022,0.01519
2445.51006,0.01517
2443.57990,0.01514
2441.64974,0.01511
2439.71959,0.01507
2437.78943,0.01504
2435.85927,0.01500
2433.92911,0.01494
2431.99895,0.01490
2430.06880,0.01488
2428.13864,0.01485
2426.20848,0.01483
2424.27832,0.01482
2422.34816,0.01479
2420.41801,0.01476
2418.48785,0.01473
2416.55769,0.01467
2414.62753,0.01459
2412.69737,0.01450
2410.76722,0.01437
2408.83706,0.01423
2406.90690,0.01409
2404.97674,0.01398
2403.04659,0.01388
2401.11643,0.01384
2399.18627,0.01388
2397.25611,0.01403
2395.32595,0.01434
2393.39580,0.01485
2391.46564,0.01560
2389.53548,0.01659
2387.60532,0.01783
2385.67516,0.01931
2383.74501,0.02103
2381.81485,0.02292
2379.88469,0.02496
2377.95453,0.02710
2376.02437,0.02930
2374.09422,0.03146
2372.16406,0.03354
2370.23390,0.03550
2368.30374,0.03726
2366.37359,0.03878
2364.44343,0.04003
2362.51327,0.04099
2360.58311,0.04163
2358.65295,0.04200
2356.72280,0.04209
2354.79264,0.04195
2352.86248,0.04162
2350.93232,0.04117
2349.00216,0.04067
2347.07201,0.04016
2345.14185,0.03965
2343.21169,0.03915
2341.28153,0.03864
2339.35137,0.03813
2337.42122,0.03764
2335.49106,0.03715
2333.56090,0.03664
2331.63074,0.03609
2329.70059,0.03550
2327.77043,0.03484
2325.84027,0.03412
2323.91011,0.03330
2321.97995,0.03241
2320.04980,0.03144
2318.11964,0.03034
2316.18948,0.02917
2314.25932,0.02797
2312.32916,0.02672
2310.39901,0.02547
2308.46885,0.02425
2306.53869,0.02311
2304.60853,0.02203
2302.67837,0.02103
2300.74822,0.02012
2298.81806,0.01928
2296.88790,0.01854
2294.95774,0.01788
2293.02759,0.01732
2291.09743,0.01685
2289.16727,0.01645
2287.23711,0.01614
2285.30695,0.01590
2283.37680,0.01572
2281.44664,0.01560
2279.51648,0.01554
2277.58632,0.01550
2275.65616,0.01551
2273.72601,0.01554
2271.79585,0.01557
2269.86569,0.01559
2267.93553,0.01562
2266.00537,0.01565
2264.07522,0.01564
2262.14506,0.01563
2260.21490,0.01561
2258.28474,0.01557
2256.35458,0.01554
2254.42443,0.01549
2252.49427,0.01540
2250.56411,0.01531
2248.63395,0.01525
2246.70380,0.01518
2244.77364,0.01511
2242.84348,0.01508
2240.91332,0.01506
2238.98316,0.01504
2237.05301,0.01504
2235.12285,0.01507
2233.19269,0.01510
2231.26253,0.01514
2229.33237,0.01519
2227.40222,0.01522
2225.47206,0.01523
2223.54190,0.01524
2221.61174,0.01528
2219.68158,0.01530
2217.75143,0.01533
2215.82127,0.01539
2213.89111,0.01544
2211.96095,0.01549
2210.03080,0.01556
2208.10064,0.01561
2206.17048,0.01566
2204.24032,0.01571
2202.31016,0.01576
2200.38001,0.01582
2198.44985,0.01587
2196.51969,0.01592
2194.58953,0.01597
2192.65937,0.01600
2190.72922,0.01602
2188.79906,0.01603
2186.86890,0.01602
2184.93874,0.01599
2183.00858,0.01597
2181.07843,0.01593
2179.14827,0.01591
2177.21811,0.01586
2175.28795,0.01586
2173.35780,0.01585
2171.42764,0.01585
2169.49748,0.01585
2167.56732,0.01584
2165.63716,0.01579
2163.70701,0.01573
2161.77685,0.01565
2159.84669,0.01555
2157.91653,0.01541
2155.98637,0.01530
2154.05622,0.01520
2152.12606,0.01510
2150.19590,0.01499
2148.26574,0.01487
2146.33558,0.01477
2144.40543,0.01468
2142.47527,0.01460
2140.54511,0.01455
2138.61495,0.01451
2136.68480,0.01449
2134.75464,0.01450
2132.82448,0.01452
2130.89432,0.01458
2128.96416,0.01468
2127.03401,0.01476
2125.10385,0.01483
2123.17369,0.01489
2121.24353,0.01493
2119.31337,0.01494
2117.38322,0.01497
2115.45306,0.01497
2113.52290,0.01497
2111.59274,0.01496
2109.66258,0.01495
2107.73243,0.01495
2105.80227,0.01494
2103.87211,0.01495
2101.94195,0.01494
2100.01180,0.01495
2098.08164,0.01495
2096.15148,0.01496
2094.22132,0.01499
2092.29116,0.01502
2090.36101,0.01505
2088.43085,0.01508
2086.50069,0.01513
2084.57053,0.01519
2082.64037,0.01524
2080.71022,0.01528
2078.78006,0.01530
2076.84990,0.01534
2074.91974,0.01537
2072.98958,0.01539
2071.05943,0.01540
2069.12927,0.01541
2067.19911,0.01542
2065.26895,0.01543
2063.33879,0.01546
2061.40864,0.01550
2059.47848,0.01556
2057.54832,0.01561
2055.61816,0.01566
2053.68801,0.01572
2051.75785,0.01578
2049.82769,0.01583
2047.89753,0.01590
2045.96737,0.01595
2044.03722,0.01601
2042.10706,0.01608
2040.17690,0.01615
2038.24674,0.01619
2036.31658,0.01621
2034.38643,0.01623
2032.45627,0.01624
2030.52611,0.01624
2028.59595,0.01623
2026.66579,0.01622
2024.73564,0.01617
2022.80548,0.01611
2020.87532,0.01603
2018.94516,0.01592
2017.01501,0.01581
2015.08485,0.01568
2013.15469,0.01556
2011.22453,0.01543
2009.29437,0.01530
2007.36422,0.01518
2005.43406,0.01505
2003.50390,0.01495
2001.57374,0.01488
1999.64358,0.01479
1997.71343,0.01475
1995.78327,0.01471
1993.85311,0.01468
1991.92295,0.01468
1989.99279,0.01469
1988.06264,0.01471
1986.13248,0.01477
1984.20232,0.01484
1982.27216,0.01490
1980.34201,0.01498
1978.41185,0.01501
1976.48169,0.01502
1974.55153,0.01500
1972.62137,0.01495
1970.69122,0.01487
1968.76106,0.01476
1966.83090,0.01466
1964.90074,0.01454
1962.97058,0.01441
1961.04043,0.01429
1959.11027,0.01415
1957.18011,0.01403
1955.24995,0.01391
1953.31979,0.01379
1951.38964,0.01368
1949.45948,0.01356
1947.52932,0.01344
1945.59916,0.01333
1943.66901,0.01323
1941.73885,0.01313
1939.80869,0.01305
1937.87853,0.01297
1935.94837,0.01289
1934.01822,0.01281
1932.08806,0.01272
1930.15790,0.01263
1928.22774,0.01254
1926.29758,0.01245
1924.36743,0.01235
1922.43727,0.01225
1920.50711,0.01219
1918.57695,0.01214
1916.64679,0.01212
1914.71664,0.01211
1912.78648,0.01212
1910.85632,0.01215
1908.92616,0.01223
1906.99601,0.01232
1905.06585,0.01243
1903.13569,0.01252
1901.20553,0.01258
1899.27537,0.01262
1897.34522,0.01264
1895.41506,0.01261
1893.48490,0.01255
1891.55474,0.01245
1889.62458,0.01234
1887.69443,0.01223
1885.76427,0.01214
1883.83411,0.01204
1881.90395,0.01194
1879.97379,0.01181
1878.04364,0.01163
1876.11348,0.01144
1874.18332,0.01124
1872.25316,0.01108
1870.32300,0.01094
1868.39285,0.01084
1866.46269,0.01084
1864.53253,0.01090
1862.60237,0.01095
1860.67222,0.01098
1858.74206,0.01095
1856.81190,0.01086
1854.88174,0.01074
1852.95158,0.01055
1851.02143,0.01032
1849.09127,0.01008
1847.16111,0.00981
1845.23095,0.00956
1843.30079,0.00937
1841.37064,0.00924
1839.44048,0.00913
1837.51032,0.00903
1835.58016,0.00897
1833.65000,0.00893
1831.71985,0.00891
1829.78969,0.00891
1827.85953,0.00898
1825.92937,0.00910
1823.99922,0.00927
1822.06906,0.00947
1820.13890,0.00960
1818.20874,0.00966
1816.27858,0.00966
1814.34843,0.00959
1812.41827,0.00950
1810.48811,0.00935
1808.55795,0.00915
1806.62779,0.00889
1804.69764,0.00858
1802.76748,0.00822
1800.83732,0.00787
1798.90716,0.00753
1796.97700,0.00718
1795.04685,0.00683
1793.11669,0.00653
1791.18653,0.00632
1789.25637,0.00617
1787.32622,0.00606
1785.39606,0.00599
1783.46590,0.00593
1781.53574,0.00586
1779.60558,0.00579
1777.67543,0.00573
1775.74527,0.00564
1773.81511,0.00557
1771.88495,0.00553
1769.95479,0.00550
1768.02464,0.00546
1766.09448,0.00536
1764.16432,0.00513
1762.23416,0.00483
1760.30400,0.00449
1758.37385,0.00414
1756.44369,0.00378
1754.51353,0.00342
1752.58337,0.00306
1750.65322,0.00272
1748.72306,0.00243
1746.79290,0.00226
1744.86274,0.00218
1742.93258,0.00219
1741.00243,0.00230
1739.07227,0.00248
1737.14211,0.00271
1735.21195,0.00297
1733.28179,0.00328
1731.35164,0.00358
1729.42148,0.00388
1727.49132,0.00414
1725.56116,0.00433
1723.63100,0.00441
1721.70085,0.00431
1719.77069,0.00407
1717.84053,0.00372
1715.91037,0.00335
1713.98022,0.00301
1712.05006,0.00267
1710.11990,0.00229
1708.18974,0.00187
1706.25958,0.00145
1704.32943,0.00108
1702.39927,0.00079
1700.46911,0.00066
1698.53895,0.00068
1696.60879,0.00092
1694.67864,0.00139
1692.74848,0.00203
1690.81832,0.00284
1688.88816,0.00377
1686.95800,0.00478
1685.02785,0.00588
1683.09769,0.00704
1681.16753,0.00825
1679.23737,0.00948
1677.30721,0.01065
1675.37706,0.01175
1673.44690,0.01280
1671.51674,0.01380
1669.58658,0.01474
1667.65643,0.01558
1665.72627,0.01627
1663.79611,0.01682
1661.86595,0.01722
1659.93579,0.01750
1658.00564,0.01770
1656.07548,0.01782
1654.14532,0.01794
1652.21516,0.01813
1650.28500,0.01841
1648.35485,0.01876
1646.42469,0.01915
1644.49453,0.01957
1642.56437,0.02001
1640.63421,0.02040
1638.70406,0.02075
1636.77390,0.02109
1634.84374,0.02143
1632.91358,0.02176
1630.98343,0.02201
1629.05327,0.02216
1627.12311,0.02222
1625.19295,0.02221
1623.26279,0.02215
1621.33264,0.02205
1619.40248,0.02194
1617.47232,0.02182
1615.54216,0.02173
1613.61200,0.02165
1611.68185,0.02162
1609.75169,0.02162
1607.82153,0.02165
1605.89137,0.02170
1603.96121,0.02177
1602.03106,0.02186
1600.10090,0.02200
1598.17074,0.02208
1596.24058,0.02210
1594.31043,0.02204
1592.38027,0.02183
1590.45011,0.02149
1588.51995,0.02098
1586.58979,0.02029
1584.65964,0.01945
1582.72948,0.01856
1580.79932,0.01759
1578.86916,0.01655
1576.93900,0.01548
1575.00885,0.01443
1573.07869,0.01337
1571.14853,0.01229
1569.21837,0.01122
1567.28821,0.01016
1565.35806,0.00913
1563.42790,0.00816
1561.49774,0.00728
1559.56758,0.00654
1557.63743,0.00598
1555.70727,0.00559
1553.77711,0.00531
1551.84695,0.00510
1549.91679,0.00492
1547.98664,0.00475
1546.05648,0.00452
1544.12632,0.00424
1542.19616,0.00397
1540.26600,0.00379
1538.33585,0.00371
1536.40569,0.00362
1534.47553,0.00351
1532.54537,0.00334
1530.61521,0.00312
1528.68506,0.00283
1526.75490,0.00244
1524.82474,0.00197
1522.89458,0.00149
1520.96443,0.00106
1519.03427,0.00072
1517.10411,0.00052
1515.17395,0.00046
1513.24379,0.00055
1511.31364,0.00074
1509.38348,0.00098
1507.45332,0.00132
1505.52316,0.00178
1503.59300,0.00232
1501.66285,0.00291
1499.73269,0.00354
1497.80253,0.00425
1495.87237,0.00505
1493.94221,0.00590
1492.01206,0.00668
1490.08190,0.00739
1488.15174,0.00804
1486.22158,0.00859
1484.29142,0.00902
1482.36127,0.00929
1480.43111,0.00945
1478.50095,0.00952
1476.57079,0.00955
1474.64064,0.00961
1472.71048,0.00971
1470.78032,0.00990
1468.85016,0.01012
1466.92000,0.01033
1464.98985,0.01055
1463.05969,0.01085
1461.12953,0.01124
1459.19937,0.01174
1457.26921,0.01231
1455.33906,0.01300
1453.40890,0.01375
1451.47874,0.01450
1449.54858,0.01522
1447.61842,0.01587
1445.68827,0.01643
1443.75811,0.01688
1441.82795,0.01722
1439.89779,0.01744
1437.96764,0.01755
1436.03748,0.01756
1434.10732,0.01750
1432.17716,0.01742
1430.24700,0.01730
1428.31685,0.01715
1426.38669,0.01698
1424.45653,0.01673
1422.52637,0.01643
1420.59621,0.01610
1418.66606,0.01581
1416.73590,0.01560
1414.80574,0.01545
1412.87558,0.01537
1410.94542,0.01536
1409.01527,0.01533
1407.08511,0.01530
1405.15495,0.01525
1403.22479,0.01520
1401.29464,0.01518
1399.36448,0.01519
1397.43432,0.01524
1395.50416,0.01536
1393.57400,0.01555
1391.64385,0.01581
1389.71369,0.01613
1387.78353,0.01646
1385.85337,0.01679
1383.92321,0.01713
1381.99306,0.01746
1380.06290,0.01777
1378.13274,0.01806
1376.20258,0.01832
1374.27242,0.01859
1372.34227,0.01885
1370.41211,0.01907
1368.48195,0.01925
1366.55179,0.01934
1364.62164,0.01935
1362.69148,0.01933
1360.76132,0.01933
1358.83116,0.01932
1356.90100,0.01930
1354.97085,0.01930
1353.04069,0.01931
1351.11053,0.01933
1349.18037,0.01937
1347.25021,0.01943
1345.32006,0.01949
1343.38990,0.01955
1341.45974,0.01964
1339.52958,0.01979
1337.59942,0.02000
1335.66927,0.02023
1333.73911,0.02050
1331.80895,0.02077
1329.87879,0.02104
1327.94864,0.02131
1326.01848,0.02155
1324.08832,0.02176
1322.15816,0.02191
1320.22800,0.02204
1318.29785,0.02213
1316.36769,0.02218
1314.43753,0.02217
1312.50737,0.02211
1310.57721,0.02198
1308.64706,0.02178
1306.71690,0.02152
1304.78674,0.02122
1302.85658,0.02087
1300.92642,0.02051
1298.99627,0.02010
1297.06611,0.01971
1295.13595,0.01936
1293.20579,0.01902
1291.27564,0.01871
1289.34548,0.01842
1287.41532,0.01815
1285.48516,0.01791
1283.55500,0.01770
1281.62485,0.01751
1279.69469,0.01732
1277.76453,0.01717
1275.83437,0.01704
1273.90421,0.01695
1271.97406,0.01687
1270.04390,0.01683
1268.11374,0.01681
1266.18358,0.01681
1264.25342,0.01683
1262.32327,0.01684
1260.39311,0.01689
1258.46295,0.01694
1256.53279,0.01702
1254.60263,0.01709
1252.67248,0.01717
1250.74232,0.01721
1248.81216,0.01723
1246.88200,0.01724
1244.95185,0.01722
1243.02169,0.01716
1241.09153,0.01705
1239.16137,0.01691
1237.23121,0.01674
1235.30106,0.01652
1233.37090,0.01628
1231.44074,0.01600
1229.51058,0.01571
1227.58042,0.01543
1225.65027,0.01515
1223.72011,0.01487
1221.78995,0.01460
1219.85979,0.01434
1217.92963,0.01409
1215.99948,0.01388
1214.06932,0.01366
1212.13916,0.01345
1210.20900,0.01323
1208.27885,0.01298
1206.34869,0.01272
1204.41853,0.01246
1202.48837,0.01218
1200.55821,0.01187
1198.62806,0.01157
1196.69790,0.01127
1194.76774,0.01106
1192.83758,0.01089
1190.90742,0.01079
1188.97727,0.01083
1187.04711,0.01098
1185.11695,0.01125
1183.18679,0.01163
1181.25663,0.01216
1179.32648,0.01282
1177.39632,0.01356
1175.46616,0.01437
1173.53600,0.01525
1171.60585,0.01614
1169.67569,0.01700
1167.74553,0.01781
1165.81537,0.01853
1163.88521,0.01911
1161.95506,0.01953
1160.02490,0.01980
1158.09474,0.01989
1156.16458,0.01982
1154.23442,0.01963
1152.30427,0.01932
1150.37411,0.01895
1148.44395,0.01855
1146.51379,0.01813
1144.58363,0.01774
1142.65348,0.01747
1140.72332,0.01729
1138.79316,0.01725
1136.86300,0.01738
1134.93285,0.01770
1133.00269,0.01819
1131.07253,0.01886
1129.14237,0.01970
1127.21221,0.02067
1125.28206,0.02176
1123.35190,0.02290
1121.42174,0.02408
1119.49158,0.02527
1117.56142,0.02643
1115.63127,0.02754
1113.70111,0.02854
1111.77095,0.02946
1109.84079,0.03023
1107.91063,0.03088
1105.98048,0.03140
1104.05032,0.03179
1102.12016,0.03204
1100.19000,0.03219
1098.25985,0.03225
1096.32969,0.03226
1094.39953,0.03225
1092.46937,0.03226
1090.53921,0.03230
1088.60906,0.03242
1086.67890,0.03264
1084.74874,0.03297
1082.81858,0.03344
1080.88842,0.03406
1078.95827,0.03479
1077.02811,0.03563
1075.09795,0.03659
1073.16779,0.03765
1071.23763,0.03877
1069.30748,0.03992
1067.37732,0.04109
1065.44716,0.04224
1063.51700,0.04337
1061.58684,0.04441
1059.65669,0.04538
1057.72653,0.04625
1055.79637,0.04700
1053.86621,0.04763
1051.93606,0.04815
1050.00590,0.04858
1048.07574,0.04893
1046.14558,0.04921
1044.21542,0.04944
1042.28527,0.04961
1040.35511,0.04973
1038.42495,0.04982
1036.49479,0.04986
1034.56463,0.04986
1032.63448,0.04980
1030.70432,0.04970
1028.77416,0.04950
1026.84400,0.04926
1024.91384,0.04893
1022.98369,0.04854
1021.05353,0.04809
1019.12337,0.04759
1017.19321,0.04703
1015.26306,0.04643
1013.33290,0.04581
1011.40274,0.04518
1009.47258,0.04455
1007.54242,0.04395
1005.61227,0.04337
1003.68211,0.04281
1001.75195,0.04228
999.82179,0.04176
997.89163,0.04126
995.96148,0.04076
994.03132,0.04027
992.10116,0.03975
990.17100,0.03919
988.24084,0.03859
986.31069,0.03795
984.38053,0.03721
982.45037,0.03640
980.52021,0.03549
978.59006,0.03449
976.65990,0.03342
974.72974,0.03226
972.79958,0.03106
970.86942,0.02982
968.93927,0.02855
967.00911,0.02726
965.07895,0.02595
963.14879,0.02464
961.21863,0.02338
959.28848,0.02214
957.35832,0.02094
955.42816,0.01976
953.49800,0.01865
951.56784,0.01760
949.63769,0.01660
947.70753,0.01567
945.77737,0.01482
943.84721,0.01403
941.91706,0.01329
939.98690,0.01259
938.05674,0.01193
936.12658,0.01131
934.19642,0.01076
932.26627,0.01025
930.33611,0.00979
928.40595,0.00938
926.47579,0.00902
924.54563,0.00870
922.61548,0.00845
920.68532,0.00826
918.75516,0.00810
916.82500,0.00799
914.89484,0.00792
912.96469,0.00789
911.03453,0.00787
909.10437,0.00788
907.17421,0.00790
905.24406,0.00792
903.31390,0.00792
901.38374,0.00790
899.45358,0.00787
897.52342,0.00781
895.59327,0.00769
893.66311,0.00752
891.73295,0.00731
889.80279,0.00706
887.87263,0.00675
885.94248,0.00643
884.01232,0.00607
882.08216,0.00569
880.15200,0.00531
878.22184,0.00493
876.29169,0.00455
874.36153,0.00419
872.43137,0.00384
870.50121,0.00350
868.57105,0.00317
866.64090,0.00286
864.71074,0.00257
862.78058,0.00231
860.85042,0.00207
858.92027,0.00186
856.99011,0.00167
855.05995,0.00148
853.12979,0.00130
851.19963,0.00116
849.26948,0.00102
847.33932,0.00102
845.40916,0.00103
843.47900,0.00103
841.54884,0.00103
839.61869,0.00103
837.68853,0.00103
835.75837,0.00102
833.82821,0.00102
831.89805,0.00101
829.96790,0.00102
828.03774,0.00102
826.10758,0.00101
