3655.71906,0.00208
3653.78890,0.00209
3651.85875,0.00208
3649.92859,0.00208
3647.99843,0.00209
3646.06827,0.00209
3644.13811,0.00209
3642.20796,0.00208
3640.27780,0.00209
3638.34764,0.00209
3636.41748,0.00209
3634.48733,0.00209
3632.55717,0.00208
3630.62701,0.00188
3628.69685,0.00170
3626.76669,0.00155
3624.83654,0.00144
3622.90638,0.00135
3620.97622,0.00128
3619.04606,0.00123
3617.11590,0.00125
3615.18575,0.00133
3613.25559,0.00146
3611.32543,0.00170
3609.39527,0.00203
3607.46511,0.00248
3605.53496,0.00305
3603.60480,0.00371
3601.67464,0.00444
3599.74448,0.00515
3597.81433,0.00579
3595.88417,0.00634
3593.95401,0.00683
3592.02385,0.00723
3590.09369,0.00759
3588.16354,0.00791
3586.23338,0.00823
3584.30322,0.00855
3582.37306,0.00884
3580.44290,0.00909
3578.51275,0.00924
3576.58259,0.00933
3574.65243,0.00935
3572.72227,0.00935
3570.79211,0.00936
3568.86196,0.00941
3566.93180,0.00953
3565.00164,0.00976
3563.07148,0.01010
3561.14133,0.01050
3559.21117,0.01094
3557.28101,0.01136
3555.35085,0.01177
3553.42069,0.01216
3551.49054,0.01255
3549.56038,0.01296
3547.63022,0.01336
3545.70006,0.01379
3543.76990,0.01424
3541.83975,0.01470
3539.90959,0.01513
3537.97943,0.01554
3536.04927,0.01586
3534.11911,0.01611
3532.18896,0.01631
3530.25880,0.01647
3528.32864,0.01659
3526.39848,0.01671
3524.46833,0.01688
3522.53817,0.01711
3520.60801,0.01738
3518.67785,0.01770
3516.74769,0.01801
3514.81754,0.01829
3512.88738,0.01854
3510.95722,0.01878
3509.02706,0.01900
3507.09690,0.01922
3505.16675,0.01945
3503.23659,0.01972
3501.30643,0.02002
3499.37627,0.02034
3497.44611,0.02066
3495.51596,0.02095
3493.58580,0.02123
3491.65564,0.02151
3489.72548,0.02177
3487.79533,0.02202
3485.86517,0.02227
3483.93501,0.02254
3482.00485,0.02283
3480.07469,0.02312
3478.14454,0.02343
3476.21438,0.02373
3474.28422,0.02401
3472.35406,0.02427
3470.42390,0.02450
3468.49375,0.02472
3466.56359,0.02491
3464.63343,0.02509
3462.70327,0.02528
3460.77311,0.02547
3458.84296,0.02569
3456.91280,0.02588
3454.98264,0.02607
3453.05248,0.02626
3451.12232,0.02645
3449.19217,0.02662
3447.26201,0.02680
3445.33185,0.02699
3443.40169,0.02719
3441.47154,0.02742
3439.54138,0.02767
3437.61122,0.02792
3435.68106,0.02816
3433.75090,0.02841
3431.82075,0.02865
3429.89059,0.02890
3427.96043,0.02913
3426.03027,0.02935
3424.10011,0.02958
3422.16996,0.02980
3420.23980,0.03003
3418.30964,0.03026
3416.37948,0.03049
3414.44932,0.03071
3412.51917,0.03092
3410.58901,0.03111
3408.65885,0.03128
3406.72869,0.03143
3404.79854,0.03161
3402.86838,0.03178
3400.93822,0.03193
3399.00806,0.03207
3397.07790,0.03223
3395.14775,0.03238
3393.21759,0.03252
3391.28743,0.03268
3389.35727,0.03283
3387.42711,0.03297
3385.49696,0.03312
3383.56680,0.03329
3381.63664,0.03344
3379.70648,0.03360
3377.77632,0.03376
3375.84617,0.03394
3373.91601,0.03413
3371.98585,0.03433
3370.05569,0.03452
3368.12554,0.03470
3366.19538,0.03487
3364.26522,0.03509
3362.33506,0.03531
3360.40490,0.03552
3358.47475,0.03573
3356.54459,0.03594
3354.61443,0.03614
3352.68427,0.03636
3350.75411,0.03657
3348.82396,0.03677
3346.89380,0.03696
3344.96364,0.03714
3343.03348,0.03730
3341.10332,0.03742
3339.17317,0.03754
3337.24301,0.03765
3335.31285,0.03773
3333.38269,0.03781
3331.45254,0.03785
3329.52238,0.03788
3327.59222,0.03789
3325.66206,0.03791
3323.73190,0.03793
3321.80175,0.03794
3319.87159,0.03796
3317.94143,0.03795
3316.01127,0.03797
3314.08111,0.03800
3312.15096,0.03803
3310.22080,0.03808
3308.29064,0.03815
3306.36048,0.03820
3304.43032,0.03828
3302.50017,0.03833
3300.57001,0.03838
3298.63985,0.03843
3296.70969,0.03848
3294.77954,0.03852
3292.84938,0.03856
3290.91922,0.03858
3288.98906,0.03859
3287.05890,0.03858
3285.12875,0.03857
3283.19859,0.03854
3281.26843,0.03849
3279.33827,0.03842
3277.40811,0.03835
3275.47796,0.03825
3273.54780,0.03813
3271.61764,0.03800
3269.68748,0.03786
3267.75732,0.03771
3265.82717,0.03754
3263.89701,0.03735
3261.96685,0.03716
3260.03669,0.03697
3258.10653,0.03676
3256.17638,0.03652
3254.24622,0.03628
3252.31606,0.03605
3250.38590,0.03582
3248.45575,0.03559
3246.52559,0.03536
3244.59543,0.03513
3242.66527,0.03490
3240.73511,0.03469
3238.80496,0.03447
3236.87480,0.03427
3234.94464,0.03408
3233.01448,0.03387
3231.08432,0.03368
3229.15417,0.03347
3227.22401,0.03331
3225.29385,0.03314
3223.36369,0.03298
3221.43353,0.03283
3219.50338,0.03267
3217.57322,0.03252
3215.64306,0.03239
3213.71290,0.03225
3211.78275,0.03210
3209.85259,0.03197
3207.92243,0.03183
3205.99227,0.03169
3204.06211,0.03155
3202.13196,0.03140
3200.20180,0.03124
3198.27164,0.03109
3196.34148,0.03093
3194.41132,0.03077
3192.48117,0.03061
3190.55101,0.03046
3188.62085,0.03032
3186.69069,0.03016
3184.76053,0.02999
3182.83038,0.02985
3180.90022,0.02970
3178.97006,0.02955
3177.03990,0.02939
3175.10975,0.02926
3173.17959,0.02913
3171.24943,0.02898
3169.31927,0.02886
3167.38911,0.02873
3165.45896,0.02860
3163.52880,0.02847
3161.59864,0.02836
3159.66848,0.02821
3157.73832,0.02809
3155.80817,0.02795
3153.87801,0.02780
3151.94785,0.02766
3150.01769,0.02748
3148.08753,0.02731
3146.15738,0.02716
3144.22722,0.02700
3142.29706,0.02682
3140.36690,0.02665
3138.43675,0.02647
3136.50659,0.02629
3134.57643,0.02611
3132.64627,0.02594
3130.71611,0.02576
3128.78596,0.02559
3126.85580,0.02544
3124.92564,0.02529
3122.99548,0.02515
3121.06532,0.02501
3119.13517,0.02489
3117.20501,0.02478
3115.27485,0.02467
3113.34469,0.02459
3111.41453,0.02450
3109.48438,0.02442
3107.55422,0.02435
3105.62406,0.02429
3103.69390,0.02425
3101.76375,0.02420
3099.83359,0.02413
3097.90343,0.02408
3095.97327,0.02403
3094.04311,0.02400
3092.11296,0.02396
3090.18280,0.02391
3088.25264,0.02386
3086.32248,0.02380
3084.39232,0.02374
3082.46217,0.02368
3080.53201,0.02361
3078.60185,0.02354
3076.67169,0.02346
3074.74153,0.02337
3072.81138,0.02330
3070.88122,0.02323
3068.95106,0.02316
3067.02090,0.02310
3065.09074,0.02303
3063.16059,0.02295
3061.23043,0.02287
3059.30027,0.02279
3057.37011,0.02272
3055.43996,0.02265
3053.50980,0.02257
3051.57964,0.02249
3049.64948,0.02240
3047.71932,0.02231
3045.78917,0.02221
3043.85901,0.02209
3041.92885,0.02197
3039.99869,0.02185
3038.06853,0.02171
3036.13838,0.02158
3034.20822,0.02143
3032.27806,0.02129
3030.34790,0.02117
3028.41774,0.02106
3026.48759,0.02095
3024.55743,0.02083
3022.62727,0.02073
3020.69711,0.02062
3018.76696,0.02054
3016.83680,0.02046
3014.90664,0.02037
3012.97648,0.02029
3011.04632,0.02022
3009.11617,0.02015
3007.18601,0.02008
3005.25585,0.02004
3003.32569,0.01998
3001.39553,0.01992
2999.46538,0.01991
2997.53522,0.01990
2995.60506,0.01988
2993.67490,0.01988
2991.74474,0.01990
2989.81459,0.01996
2987.88443,0.02002
2985.95427,0.02009
2984.02411,0.02021
2982.09396,0.02034
2980.16380,0.02049
2978.23364,0.02065
2976.30348,0.02084
2974.37332,0.02101
2972.44317,0.02122
2970.51301,0.02140
2968.58285,0.02160
2966.65269,0.02179
2964.72253,0.02200
2962.79238,0.02219
2960.86222,0.02236
2958.93206,0.02256
2957.00190,0.02275
2955.07174,0.02297
2953.14159,0.02317
2951.21143,0.02340
2949.28127,0.02365
2947.35111,0.02391
2945.42096,0.02418
2943.49080,0.02447
2941.56064,0.02477
2939.63048,0.02506
2937.70032,0.02536
2935.77017,0.02568
2933.84001,0.02598
2931.90985,0.02625
2929.97969,0.02650
2928.04953,0.02671
2926.11938,0.02690
2924.18922,0.02704
2922.25906,0.02714
2920.32890,0.02720
2918.39874,0.02721
2916.46859,0.02718
2914.53843,0.02712
2912.60827,0.02701
2910.67811,0.02689
2908.74796,0.02677
2906.81780,0.02662
2904.88764,0.02647
2902.95748,0.02632
2901.02732,0.02618
2899.09717,0.02602
2897.16701,0.02587
2895.23685,0.02573
2893.30669,0.02563
2891.37653,0.02551
2889.44638,0.02542
2887.51622,0.02535
2885.58606,0.02529
2883.65590,0.02523
2881.72574,0.02518
2879.79559,0.02513
2877.86543,0.02512
2875.93527,0.02512
2874.00511,0.02511
2872.07495,0.02509
2870.14480,0.02509
2868.21464,0.02508
2866.28448,0.02505
2864.35432,0.02502
2862.42417,0.02496
2860.49401,0.02490
2858.56385,0.02479
2856.63369,0.02467
2854.70353,0.02452
2852.77338,0.02434
2850.84322,0.02413
2848.91306,0.02388
2846.98290,0.02361
2845.05274,0.02332
2843.12259,0.02303
2841.19243,0.02273
2839.26227,0.02243
2837.33211,0.02214
2835.40195,0.02187
2833.47180,0.02161
2831.54164,0.02136
2829.61148,0.02115
2827.68132,0.02095
2825.75117,0.02077
2823.82101,0.02063
2821.89085,0.02049
2819.96069,0.02037
2818.03053,0.02026
2816.10038,0.02016
2814.17022,0.02007
2812.24006,0.02000
2810.30990,0.01994
2808.37974,0.01987
2806.44959,0.01980
2804.51943,0.01971
2802.58927,0.01964
2800.65911,0.01956
2798.72895,0.01949
2796.79880,0.01942
2794.86864,0.01935
2792.93848,0.01930
2791.00832,0.01924
2789.07817,0.01919
2787.14801,0.01915
2785.21785,0.01911
2783.28769,0.01905
2781.35753,0.01901
2779.42738,0.01898
2777.49722,0.01894
2775.56706,0.01890
2773.63690,0.01888
2771.70674,0.01883
2769.77659,0.01878
2767.84643,0.01875
2765.91627,0.01871
2763.98611,0.01866
2762.05595,0.01862
2760.12580,0.01859
2758.19564,0.01855
2756.26548,0.01851
2754.33532,0.01847
2752.40517,0.01842
2750.47501,0.01838
2748.54485,0.01835
2746.61469,0.01831
2744.68453,0.01828
2742.75438,0.01825
2740.82422,0.01822
2738.89406,0.01820
2736.96390,0.01817
2735.03374,0.01813
2733.10359,0.01810
2731.17343,0.01808
2729.24327,0.01806
2727.31311,0.01802
2725.38295,0.01798
2723.45280,0.01794
2721.52264,0.01792
2719.59248,0.01790
2717.66232,0.01786
2715.73217,0.01780
2713.80201,0.01778
2711.87185,0.01775
2709.94169,0.01771
2708.01153,0.01767
2706.08138,0.01765
2704.15122,0.01763
2702.22106,0.01760
2700.29090,0.01757
2698.36074,0.01753
2696.43059,0.01750
2694.50043,0.01747
2692.57027,0.01744
2690.64011,0.01742
2688.70995,0.01741
2686.77980,0.01738
2684.84964,0.01735
2682.91948,0.01734
2680.98932,0.01733
2679.05917,0.01730
2677.12901,0.01728
2675.19885,0.01726
2673.26869,0.01725
2671.33853,0.01724
2669.40838,0.01721
2667.47822,0.01721
2665.54806,0.01719
2663.61790,0.01717
2661.68774,0.01716
2659.75759,0.01714
2657.82743,0.01711
2655.89727,0.01711
2653.96711,0.01709
2652.03695,0.01707
2650.10680,0.01704
2648.17664,0.01702
2646.24648,0.01699
2644.31632,0.01695
2642.38616,0.01693
2640.45601,0.01692
2638.52585,0.01688
2636.59569,0.01688
2634.66553,0.01684
2632.73538,0.01681
2630.80522,0.01678
2628.87506,0.01675
2626.94490,0.01673
2625.01474,0.01670
2623.08459,0.01668
2621.15443,0.01665
2619.22427,0.01662
2617.29411,0.01659
2615.36395,0.01656
2613.43380,0.01653
2611.50364,0.01651
2609.57348,0.01647
2607.64332,0.01644
2605.71316,0.01642
2603.78301,0.01640
2601.85285,0.01637
2599.92269,0.01634
2597.99253,0.01634
2596.06238,0.01633
2594.13222,0.01630
2592.20206,0.01627
2590.27190,0.01624
2588.34174,0.01623
2586.41159,0.01622
2584.48143,0.01619
2582.55127,0.01617
2580.62111,0.01614
2578.69095,0.01613
2576.76080,0.01612
2574.83064,0.01609
2572.90048,0.01606
2570.97032,0.01603
2569.04016,0.01600
2567.11001,0.01597
2565.17985,0.01595
2563.24969,0.01592
2561.31953,0.01590
2559.38938,0.01588
2557.45922,0.01586
2555.52906,0.01584
2553.59890,0.01582
2551.66874,0.01580
2549.73859,0.01578
2547.80843,0.01576
2545.87827,0.01575
2543.94811,0.01575
2542.01795,0.01576
2540.08780,0.01576
2538.15764,0.01576
2536.22748,0.01576
2534.29732,0.01576
2532.36716,0.01578
2530.43701,0.01578
2528.50685,0.01578
2526.57669,0.01578
2524.64653,0.01580
2522.71638,0.01580
2520.78622,0.01581
2518.85606,0.01580
2516.92590,0.01578
2514.99574,0.01575
2513.06559,0.01572
2511.13543,0.01569
2509.20527,0.01566
2507.27511,0.01561
2505.34495,0.01557
2503.41480,0.01553
2501.48464,0.01549
2499.55448,0.01546
2497.62432,0.01542
2495.69416,0.01538
2493.76401,0.01535
2491.83385,0.01532
2489.90369,0.01530
2487.97353,0.01530
2486.04338,0.01528
2484.11322,0.01524
2482.18306,0.01522
2480.25290,0.01521
2478.32274,0.01520
2476.39259,0.01518
2474.46243,0.01518
2472.53227,0.01519
2470.60211,0.01516
2468.67195,0.01515
2466.74180,0.01514
2464.81164,0.01514
2462.88148,0.01514
2460.95132,0.01515
2459.02116,0.01516
2457.09101,0.01516
2455.16085,0.01514
2453.23069,0.01514
2451.30053,0.01513
2449.37037,0.01513
2447.44022,0.01511
2445.51006,0.01510
2443.57990,0.01508
2441.64974,0.01505
2439.71959,0.01502
2437.78943,0.01497
2435.85927,0.01493
2433.92911,0.01489
2431.99895,0.01485
2430.06880,0.01482
2428.13864,0.01479
2426.20848,0.01477
2424.27832,0.01475
2422.34816,0.01474
2420.41801,0.01471
2418.48785,0.01467
2416.55769,0.01460
2414.62753,0.01452
2412.69737,0.01442
2410.76722,0.01432
2408.83706,0.01418
2406.90690,0.01403
2404.97674,0.01390
2403.04659,0.01379
2401.11643,0.01375
2399.18627,0.01380
2397.25611,0.01394
2395.32595,0.01425
2393.39580,0.01476
2391.46564,0.01551
2389.53548,0.01651
2387.60532,0.01775
2385.67516,0.01923
2383.74501,0.02094
2381.81485,0.02283
2379.88469,0.02487
2377.95453,0.02700
2376.02437,0.02918
2374.09422,0.03133
2372.16406,0.03341
2370.23390,0.03534
2368.30374,0.03708
2366.37359,0.03860
2364.44343,0.03987
2362.51327,0.04083
2360.58311,0.04147
2358.65295,0.04181
2356.72280,0.04191
2354.79264,0.04177
2352.86248,0.04146
2350.93232,0.04100
2349.00216,0.04050
2347.07201,0.03999
2345.14185,0.03948
2343.21169,0.03898
2341.28153,0.03847
2339.35137,0.03798
2337.42122,0.03747
2335.49106,0.03697
2333.56090,0.03647
2331.63074,0.03594
2329.70059,0.03535
2327.77043,0.03469
2325.84027,0.03398
2323.91011,0.03319
2321.97995,0.03229
2320.04980,0.03129
2318.11964,0.03021
2316.18948,0.02905
2314.25932,0.02786
2312.32916,0.02662
2310.39901,0.02537
2308.46885,0.02414
2306.53869,0.02300
2304.60853,0.02192
2302.67837,0.02092
2300.74822,0.02002
2298.81806,0.01921
2296.88790,0.01848
2294.95774,0.01783
2293.02759,0.01725
2291.09743,0.01679
2289.16727,0.01640
2287.23711,0.01607
2285.30695,0.01582
2283.37680,0.01564
2281.44664,0.01552
2279.51648,0.01547
2277.58632,0.01546
2275.65616,0.01546
2273.72601,0.01548
2271.79585,0.01550
2269.86569,0.01554
2267.93553,0.01556
2266.00537,0.01556
2264.07522,0.01556
2262.14506,0.01558
2260.21490,0.01556
2258.28474,0.01552
2256.35458,0.01547
2254.42443,0.01540
2252.49427,0.01534
2250.56411,0.01526
2248.63395,0.01519
2246.70380,0.01512
2244.77364,0.01504
2242.84348,0.01499
2240.91332,0.01498
2238.98316,0.01499
2237.05301,0.01499
2235.12285,0.01500
2233.19269,0.01504
2231.26253,0.01507
2229.33237,0.01511
2227.40222,0.01514
2225.47206,0.01517
2223.54190,0.01519
2221.61174,0.01521
2219.68158,0.01524
2217.75143,0.01528
2215.82127,0.01532
2213.89111,0.01539
2211.96095,0.01544
2210.03080,0.01548
2208.10064,0.01553
2206.17048,0.01560
2204.24032,0.01565
2202.31016,0.01569
2200.38001,0.01573
2198.44985,0.01579
2196.51969,0.01584
2194.58953,0.01589
2192.65937,0.01592
2190.72922,0.01593
2188.79906,0.01595
2186.86890,0.01596
2184.93874,0.01594
2183.00858,0.01592
2181.07843,0.01588
2179.14827,0.01585
2177.21811,0.01581
2175.28795,0.01579
2173.35780,0.01578
2171.42764,0.01579
2169.49748,0.01579
2167.56732,0.01577
2165.63716,0.01573
2163.70701,0.01567
2161.77685,0.01558
2159.84669,0.01548
2157.91653,0.01536
2155.98637,0.01525
2154.05622,0.01514
2152.12606,0.01503
2150.19590,0.01492
2148.26574,0.01481
2146.33558,0.01469
2144.40543,0.01460
2142.47527,0.01453
2140.54511,0.01448
2138.61495,0.01445
2136.68480,0.01445
2134.75464,0.01445
2132.82448,0.01447
2130.89432,0.01452
2128.96416,0.01460
2127.03401,0.01468
2125.10385,0.01477
2123.17369,0.01482
2121.24353,0.01486
2119.31337,0.01488
2117.38322,0.01491
2115.45306,0.01490
2113.52290,0.01491
2111.59274,0.01490
2109.66258,0.01489
2107.73243,0.01488
2105.80227,0.01486
2103.87211,0.01487
2101.94195,0.01488
2100.01180,0.01489
2098.08164,0.01489
2096.15148,0.01491
2094.22132,0.01495
2092.29116,0.01496
2090.36101,0.01499
2088.43085,0.01501
2086.50069,0.01506
2084.57053,0.01513
2082.64037,0.01517
2080.71022,0.01522
2078.78006,0.01525
2076.84990,0.01527
2074.91974,0.01529
2072.98958,0.01531
2071.05943,0.01533
2069.12927,0.01533
2067.19911,0.01535
2065.26895,0.01538
2063.33879,0.01541
2061.40864,0.01543
2059.47848,0.01548
2057.54832,0.01554
2055.61816,0.01559
2053.68801,0.01563
2051.75785,0.01570
2049.82769,0.01575
2047.89753,0.01581
2045.96737,0.01587
2044.03722,0.01594
2042.10706,0.01601
2040.17690,0.01607
2038.24674,0.01611
2036.31658,0.01614
2034.38643,0.01615
2032.45627,0.01616
2030.52611,0.01618
2028.59595,0.01618
2026.66579,0.01616
2024.73564,0.01611
2022.80548,0.01605
2020.87532,0.01595
2018.94516,0.01585
2017.01501,0.01573
2015.08485,0.01559
2013.15469,0.01548
2011.22453,0.01536
2009.29437,0.01525
2007.36422,0.01513
2005.43406,0.01501
2003.50390,0.01491
2001.57374,0.01482
1999.64358,0.01475
1997.71343,0.01470
1995.78327,0.01467
1993.85311,0.01465
1991.92295,0.01463
1989.99279,0.01463
1988.06264,0.01466
1986.13248,0.01471
1984.20232,0.01479
1982.27216,0.01485
1980.34201,0.01491
1978.41185,0.01495
1976.48169,0.01496
1974.55153,0.01494
1972.62137,0.01490
1970.69122,0.01482
1968.76106,0.01472
1966.83090,0.01460
1964.90074,0.01447
1962.97058,0.01434
1961.04043,0.01421
1959.11027,0.01407
1957.18011,0.01398
1955.24995,0.01387
1953.31979,0.01374
1951.38964,0.01363
1949.45948,0.01352
1947.52932,0.01340
1945.59916,0.01328
1943.66901,0.01317
1941.73885,0.01307
1939.80869,0.01299
1937.87853,0.01292
1935.94837,0.01284
1934.01822,0.01276
1932.08806,0.01267
1930.15790,0.01257
1928.22774,0.01247
1926.29758,0.01237
1924.36743,0.01229
1922.43727,0.01221
1920.50711,0.01213
1918.57695,0.01207
1916.64679,0.01206
1914.71664,0.01205
1912.78648,0.01205
1910.85632,0.01209
1908.92616,0.01218
1906.99601,0.01229
1905.06585,0.01238
1903.13569,0.01245
1901.20553,0.01252
1899.27537,0.01256
1897.34522,0.01257
1895.41506,0.01254
1893.48490,0.01249
1891.55474,0.01241
1889.62458,0.01231
1887.69443,0.01220
1885.76427,0.01212
1883.83411,0.01202
1881.90395,0.01190
1879.97379,0.01176
1878.04364,0.01158
1876.11348,0.01140
1874.18332,0.01121
1872.25316,0.01103
1870.32300,0.01088
1868.39285,0.01079
1866.46269,0.01079
1864.53253,0.01083
1862.60237,0.01089
1860.67222,0.01092
1858.74206,0.01088
1856.81190,0.01081
1854.88174,0.01069
1852.95158,0.01052
1851.02143,0.01030
1849.09127,0.01004
1847.16111,0.00977
1845.23095,0.00952
1843.30079,0.00933
1841.37064,0.00920
1839.44048,0.00908
1837.51032,0.00899
1835.58016,0.00892
1833.65000,0.00888
1831.71985,0.00887
1829.78969,0.00886
1827.85953,0.00892
1825.92937,0.00904
1823.99922,0.00921
1822.06906,0.00940
1820.13890,0.00955
1818.20874,0.00962
1816.27858,0.00961
1814.34843,0.00955
1812.41827,0.00945
1810.48811,0.00931
1808.55795,0.00912
1806.62779,0.00886
1804.69764,0.00855
1802.76748,0.00820
1800.83732,0.00784
1798.90716,0.00749
1796.97700,0.00713
1795.04685,0.00680
1793.11669,0.00650
1791.18653,0.00628
1789.25637,0.00614
1787.32622,0.00604
1785.39606,0.00597
1783.46590,0.00591
1781.53574,0.00584
1779.60558,0.00576
1777.67543,0.00570
1775.74527,0.00563
1773.81511,0.00556
1771.88495,0.00552
1769.95479,0.00548
1768.02464,0.00543
1766.09448,0.00532
1764.16432,0.00509
1762.23416,0.00480
1760.30400,0.00447
1758.37385,0.00411
1756.44369,0.00376
1754.51353,0.00341
1752.58337,0.00304
1750.65322,0.00269
1748.72306,0.00242
1746.79290,0.00223
1744.86274,0.00215
1742.93258,0.00217
1741.00243,0.00228
1739.07227,0.00247
1737.14211,0.00270
1735.21195,0.00296
1733.28179,0.00325
1731.35164,0.00354
1729.42148,0.00385
1727.49132,0.00412
1725.56116,0.00431
1723.63100,0.00439
1721.70085,0.00429
1719.77069,0.00405
1717.84053,0.00369
1715.91037,0.00332
1713.98022,0.00299
1712.05006,0.00265
1710.11990,0.00228
1708.18974,0.00185
1706.25958,0.00144
1704.32943,0.00106
1702.39927,0.00078
1700.46911,0.00063
1698.53895,0.00066
1696.60879,0.00090
1694.67864,0.00139
1692.74848,0.00203
1690.81832,0.00281
1688.88816,0.00374
1686.95800,0.00476
1685.02785,0.00586
1683.09769,0.00700
1681.16753,0.00821
1679.23737,0.00944
1677.30721,0.01061
1675.37706,0.01169
1673.44690,0.01273
1671.51674,0.01372
1669.58658,0.01466
1667.65643,0.01552
1665.72627,0.01622
1663.79611,0.01675
1661.86595,0.01714
1659.93579,0.01743
1658.00564,0.01764
1656.07548,0.01777
1654.14532,0.01789
1652.21516,0.01807
1650.28500,0.01835
1648.35485,0.01871
1646.42469,0.01908
1644.49453,0.01950
1642.56437,0.01992
1640.63421,0.02031
1638.70406,0.02066
1636.77390,0.02101
1634.84374,0.02134
1632.91358,0.02167
1630.98343,0.02192
1629.05327,0.02208
1627.12311,0.02214
1625.19295,0.02214
1623.26279,0.02208
1621.33264,0.02198
1619.40248,0.02186
1617.47232,0.02172
1615.54216,0.02163
1613.61200,0.02158
1611.68185,0.02156
1609.75169,0.02155
1607.82153,0.02156
1605.89137,0.02161
1603.96121,0.02169
1602.03106,0.02180
1600.10090,0.02192
1598.17074,0.02201
1596.24058,0.02203
1594.31043,0.02195
1592.38027,0.02174
1590.45011,0.02141
1588.51995,0.02089
1586.58979,0.02021
1584.65964,0.01939
1582.72948,0.01849
1580.79932,0.01751
1578.86916,0.01648
1576.93900,0.01543
1575.00885,0.01438
1573.07869,0.01332
1571.14853,0.01225
1569.21837,0.01118
1567.28821,0.01012
1565.35806,0.00909
1563.42790,0.00811
1561.49774,0.00724
1559.56758,0.00651
1557.63743,0.00595
1555.70727,0.00556
1553.77711,0.00528
1551.84695,0.00506
1549.91679,0.00489
1547.98664,0.00471
1546.05648,0.00449
1544.12632,0.00422
1542.19616,0.00396
1540.26600,0.00378
1538.33585,0.00369
1536.40569,0.00361
1534.47553,0.00349
1532.54537,0.00331
1530.61521,0.00310
1528.68506,0.00280
1526.75490,0.00241
1524.82474,0.00195
1522.89458,0.00148
1520.96443,0.00105
1519.03427,0.00072
1517.10411,0.00051
1515.17395,0.00046
1513.24379,0.00054
1511.31364,0.00071
1509.38348,0.00094
1507.45332,0.00129
1505.52316,0.00176
1503.59300,0.00230
1501.66285,0.00289
1499.73269,0.00352
1497.80253,0.00423
1495.87237,0.00503
1493.94221,0.00587
1492.01206,0.00665
1490.08190,0.00735
1488.15174,0.00800
1486.22158,0.00855
1484.29142,0.00898
1482.36127,0.00925
1480.43111,0.00941
1478.50095,0.00948
1476.57079,0.00952
1474.64064,0.00955
1472.71048,0.00967
1470.78032,0.00987
1468.85016,0.01009
1466.92000,0.01030
1464.98985,0.01052
1463.05969,0.01080
1461.12953,0.01119
1459.19937,0.01168
1457.26921,0.01226
1455.33906,0.01294
1453.40890,0.01369
1451.47874,0.01444
1449.54858,0.01514
1447.61842,0.01579
1445.68827,0.01635
1443.75811,0.01682
1441.82795,0.01716
1439.89779,0.01738
1437.96764,0.01747
1436.03748,0.01748
1434.10732,0.01743
1432.17716,0.01735
1430.24700,0.01723
1428.31685,0.01708
1426.38669,0.01691
1424.45653,0.01668
1422.52637,0.01637
1420.59621,0.01603
1418.66606,0.01574
1416.73590,0.01554
1414.80574,0.01539
1412.87558,0.01531
1410.94542,0.01528
1409.01527,0.01526
1407.08511,0.01523
1405.15495,0.01516
1403.22479,0.01512
1401.29464,0.01510
1399.36448,0.01511
1397.43432,0.01516
1395.50416,0.01527
1393.57400,0.01547
1391.64385,0.01574
1389.71369,0.01606
1387.78353,0.01639
1385.85337,0.01672
1383.92321,0.01705
1381.99306,0.01738
1380.06290,0.01768
1378.13274,0.01797
1376.20258,0.01824
1374.27242,0.01852
1372.34227,0.01878
1370.41211,0.01901
1368.48195,0.01917
1366.55179,0.01926
1364.62164,0.01928
1362.69148,0.01926
1360.76132,0.01924
1358.83116,0.01923
1356.90100,0.01922
1354.97085,0.01922
1353.04069,0.01922
1351.11053,0.01923
1349.18037,0.01928
1347.25021,0.01933
1345.32006,0.01939
1343.38990,0.01948
1341.45974,0.01957
1339.52958,0.01971
1337.59942,0.01991
1335.66927,0.02015
1333.73911,0.02043
1331.80895,0.02068
1329.87879,0.02094
1327.94864,0.02121
1326.01848,0.02147
1324.08832,0.02168
1322.15816,0.02182
1320.22800,0.02193
1318.29785,0.02202
1316.36769,0.02207
1314.43753,0.02206
1312.50737,0.02202
1310.57721,0.02190
1308.64706,0.02169
1306.71690,0.02144
1304.78674,0.02113
1302.85658,0.02079
1300.92642,0.02042
1298.99627,0.02001
1297.06611,0.01961
1295.13595,0.01926
1293.20579,0.01891
1291.27564,0.01861
1289.34548,0.01833
1287.41532,0.01807
1285.48516,0.01783
1283.55500,0.01761
1281.62485,0.01742
1279.69469,0.01724
1277.76453,0.01710
1275.83437,0.01697
1273.90421,0.01687
1271.97406,0.01680
1270.04390,0.01677
1268.11374,0.01674
1266.18358,0.01673
1264.25342,0.01675
1262.32327,0.01676
1260.39311,0.01681
1258.46295,0.01686
1256.53279,0.01694
1254.60263,0.01701
1252.67248,0.01707
1250.74232,0.01711
1248.81216,0.01716
1246.88200,0.01717
1244.95185,0.01715
1243.02169,0.01709
1241.09153,0.01698
1239.16137,0.01684
1237.23121,0.01667
1235.30106,0.01646
1233.37090,0.01621
1231.44074,0.01594
1229.51058,0.01564
1227.58042,0.01536
1225.65027,0.01507
1223.72011,0.01479
1221.78995,0.01453
1219.85979,0.01428
1217.92963,0.01403
1215.99948,0.01382
1214.06932,0.01359
1212.13916,0.01338
1210.20900,0.01316
1208.27885,0.01292
1206.34869,0.01267
1204.41853,0.01240
1202.48837,0.01211
1200.55821,0.01181
1198.62806,0.01151
1196.69790,0.01123
1194.76774,0.01100
1192.83758,0.01084
1190.90742,0.01075
1188.97727,0.01077
1187.04711,0.01091
1185.11695,0.01118
1183.18679,0.01157
1181.25663,0.01210
1179.32648,0.01274
1177.39632,0.01347
1175.46616,0.01430
1173.53600,0.01518
1171.60585,0.01606
1169.67569,0.01693
1167.74553,0.01773
1165.81537,0.01843
1163.88521,0.01900
1161.95506,0.01941
1160.02490,0.01967
1158.09474,0.01977
1156.16458,0.01971
1154.23442,0.01952
1152.30427,0.01921
1150.37411,0.01886
1148.44395,0.01844
1146.51379,0.01803
1144.58363,0.01766
1142.65348,0.01738
1140.72332,0.01719
1138.79316,0.01716
1136.86300,0.01729
1134.93285,0.01761
1133.00269,0.01811
1131.07253,0.01877
1129.14237,0.01960
1127.21221,0.02055
1125.28206,0.02164
1123.35190,0.02279
1121.42174,0.02396
1119.49158,0.02515
1117.56142,0.02630
1115.63127,0.02738
1113.70111,0.02839
1111.77095,0.02930
1109.84079,0.03007
1107.91063,0.03073
1105.98048,0.03125
1104.05032,0.03162
1102.12016,0.03188
1100.19000,0.03204
1098.25985,0.03210
1096.32969,0.03212
1094.39953,0.03210
1092.46937,0.03210
1090.53921,0.03214
1088.60906,0.03225
1086.67890,0.03248
1084.74874,0.03281
1082.81858,0.03327
1080.88842,0.03388
1078.95827,0.03460
1077.02811,0.03544
1075.09795,0.03641
1073.16779,0.03745
1071.23763,0.03856
1069.30748,0.03972
1067.37732,0.04088
1065.44716,0.04202
1063.51700,0.04315
1061.58684,0.04419
1059.65669,0.04515
1057.72653,0.04601
1055.79637,0.04676
1053.86621,0.04738
1051.93606,0.04791
1050.00590,0.04833
1048.07574,0.04868
1046.14558,0.04896
1044.21542,0.04918
1042.28527,0.04935
1040.35511,0.04948
1038.42495,0.04958
1036.49479,0.04961
1034.56463,0.04961
1032.63448,0.04957
1030.70432,0.04944
1028.77416,0.04924
1026.84400,0.04899
1024.91384,0.04867
1022.98369,0.04829
1021.05353,0.04785
1019.12337,0.04734
1017.19321,0.04677
1015.26306,0.04617
1013.33290,0.04556
1011.40274,0.04494
1009.47258,0.04432
1007.54242,0.04371
1005.61227,0.04314
1003.68211,0.04259
1001.75195,0.04205
999.82179,0.04154
997.89163,0.04104
995.96148,0.04054
994.03132,0.04005
992.10116,0.03954
990.17100,0.03899
988.24084,0.03840
986.31069,0.03774
984.38053,0.03701
982.45037,0.03619
980.52021,0.03529
978.59006,0.03430
976.65990,0.03322
974.72974,0.03206
972.79958,0.03087
970.86942,0.02966
968.93927,0.02839
967.00911,0.02709
965.07895,0.02580
963.14879,0.02452
961.21863,0.02326
959.28848,0.02201
957.35832,0.02082
955.42816,0.01966
953.49800,0.01855
951.56784,0.01750
949.63769,0.01651
947.70753,0.01559
945.77737,0.01474
943.84721,0.01395
941.91706,0.01321
939.98690,0.01252
938.05674,0.01187
936.12658,0.01126
934.19642,0.01070
932.26627,0.01019
930.33611,0.00972
928.40595,0.00932
926.47579,0.00897
924.54563,0.00865
922.61548,0.00840
920.68532,0.00821
918.75516,0.00805
916.82500,0.00793
914.89484,0.00787
912.96469,0.00783
911.03453,0.00781
909.10437,0.00783
907.17421,0.00784
905.24406,0.00789
903.31390,0.00790
901.38374,0.00788
899.45358,0.00784
897.52342,0.00777
895.59327,0.00765
893.66311,0.00748
891.73295,0.00726
889.80279,0.00702
887.87263,0.00672
885.94248,0.00639
884.01232,0.00603
882.08216,0.00567
880.15200,0.00529
878.22184,0.00490
876.29169,0.00453
874.36153,0.00415
872.43137,0.00380
870.50121,0.00347
868.57105,0.00315
866.64090,0.00284
864.71074,0.00255
862.78058,0.00229
860.85042,0.00205
858.92027,0.00183
856.99011,0.00165
855.05995,0.00148
853.12979,0.00130
851.19963,0.00115
849.26948,0.00103
847.33932,0.00102
845.40916,0.00101
843.47900,0.00101
841.54884,0.00102
839.61869,0.00102
837.68853,0.00101
835.75837,0.00100
833.82821,0.00100
831.89805,0.00101
829.96790,0.00102
828.03774,0.00101
826.10758,0.00100
