3655.71906,0.00213
3653.78890,0.00214
3651.85875,0.00213
3649.92859,0.00213
3647.99843,0.00213
3646.06827,0.00214
3644.13811,0.00213
3642.20796,0.00214
3640.27780,0.00214
3638.34764,0.00214
3636.41748,0.00213
3634.48733,0.00212
3632.55717,0.00212
3630.62701,0.00192
3628.69685,0.00175
3626.76669,0.00158
3624.83654,0.00147
3622.90638,0.00138
3620.97622,0.00133
3619.04606,0.00129
3617.11590,0.00130
3615.18575,0.00136
3613.25559,0.00149
3611.32543,0.00173
3609.39527,0.00207
3607.46511,0.00254
3605.53496,0.00311
3603.60480,0.00379
3601.67464,0.00451
3599.74448,0.00522
3597.81433,0.00587
3595.88417,0.00645
3593.95401,0.00695
3592.02385,0.00738
3590.09369,0.00771
3588.16354,0.00803
3586.23338,0.00837
3584.30322,0.00869
3582.37306,0.00898
3580.44290,0.00924
3578.51275,0.00942
3576.58259,0.00950
3574.65243,0.00951
3572.72227,0.00951
3570.79211,0.00952
3568.86196,0.00957
3566.93180,0.00969
3565.00164,0.00991
3563.07148,0.01025
3561.14133,0.01067
3559.21117,0.01111
3557.28101,0.01155
3555.35085,0.01195
3553.42069,0.01237
3551.49054,0.01277
3549.56038,0.01317
3547.63022,0.01358
3545.70006,0.01402
3543.76990,0.01447
3541.83975,0.01494
3539.90959,0.01539
3537.97943,0.01579
3536.04927,0.01612
3534.11911,0.01640
3532.18896,0.01660
3530.25880,0.01674
3528.32864,0.01687
3526.39848,0.01700
3524.46833,0.01718
3522.53817,0.01740
3520.60801,0.01768
3518.67785,0.01799
3516.74769,0.01831
3514.81754,0.01859
3512.88738,0.01884
3510.95722,0.01907
3509.02706,0.01930
3507.09690,0.01954
3505.16675,0.01979
3503.23659,0.02006
3501.30643,0.02035
3499.37627,0.02066
3497.44611,0.02098
3495.51596,0.02129
3493.58580,0.02159
3491.65564,0.02188
3489.72548,0.02213
3487.79533,0.02238
3485.86517,0.02265
3483.93501,0.02292
3482.00485,0.02321
3480.07469,0.02351
3478.14454,0.02383
3476.21438,0.02414
3474.28422,0.02441
3472.35406,0.02468
3470.42390,0.02491
3468.49375,0.02513
3466.56359,0.02532
3464.63343,0.02551
3462.70327,0.02572
3460.77311,0.02591
3458.84296,0.02611
3456.91280,0.02631
3454.98264,0.02652
3453.05248,0.02671
3451.12232,0.02688
3449.19217,0.02707
3447.26201,0.02725
3445.33185,0.02745
3443.40169,0.02767
3441.47154,0.02789
3439.54138,0.02812
3437.61122,0.02838
3435.68106,0.02864
3433.75090,0.02888
3431.82075,0.02912
3429.89059,0.02938
3427.96043,0.02961
3426.03027,0.02983
3424.10011,0.03007
3422.16996,0.03030
3420.23980,0.03053
3418.30964,0.03077
3416.37948,0.03100
3414.44932,0.03122
3412.51917,0.03145
3410.58901,0.03163
3408.65885,0.03180
3406.72869,0.03198
3404.79854,0.03215
3402.86838,0.03230
3400.93822,0.03245
3399.00806,0.03260
3397.07790,0.03277
3395.14775,0.03292
3393.21759,0.03307
3391.28743,0.03323
3389.35727,0.03339
3387.42711,0.03353
3385.49696,0.03368
3383.56680,0.03383
3381.63664,0.03399
3379.70648,0.03415
3377.77632,0.03432
3375.84617,0.03450
3373.91601,0.03471
3371.98585,0.03491
3370.05569,0.03509
3368.12554,0.03529
3366.19538,0.03548
3364.26522,0.03569
3362.33506,0.03589
3360.40490,0.03611
3358.47475,0.03633
3356.54459,0.03655
3354.61443,0.03677
3352.68427,0.03698
3350.75411,0.03719
3348.82396,0.03740
3346.89380,0.03759
3344.96364,0.03777
3343.03348,0.03793
3341.10332,0.03807
3339.17317,0.03818
3337.24301,0.03828
3335.31285,0.03836
3333.38269,0.03844
3331.45254,0.03848
3329.52238,0.03851
3327.59222,0.03852
3325.66206,0.03854
3323.73190,0.03855
3321.80175,0.03857
3319.87159,0.03859
3317.94143,0.03860
3316.01127,0.03862
3314.08111,0.03864
3312.15096,0.03867
3310.22080,0.03873
3308.29064,0.03878
3306.36048,0.03883
3304.43032,0.03891
3302.50017,0.03898
3300.57001,0.03904
3298.63985,0.03908
3296.70969,0.03914
3294.77954,0.03918
3292.84938,0.03920
3290.91922,0.03921
3288.98906,0.03924
3287.05890,0.03924
3285.12875,0.03923
3283.19859,0.03920
3281.26843,0.03914
3279.33827,0.03908
3277.40811,0.03901
3275.47796,0.03889
3273.54780,0.03878
3271.61764,0.03864
3269.68748,0.03849
3267.75732,0.03835
3265.82717,0.03818
3263.89701,0.03800
3261.96685,0.03779
3260.03669,0.03758
3258.10653,0.03736
3256.17638,0.03713
3254.24622,0.03689
3252.31606,0.03667
3250.38590,0.03643
3248.45575,0.03619
3246.52559,0.03596
3244.59543,0.03573
3242.66527,0.03550
3240.73511,0.03529
3238.80496,0.03506
3236.87480,0.03484
3234.94464,0.03464
3233.01448,0.03444
3231.08432,0.03425
3229.15417,0.03406
3227.22401,0.03388
3225.29385,0.03370
3223.36369,0.03355
3221.43353,0.03339
3219.50338,0.03322
3217.57322,0.03307
3215.64306,0.03293
3213.71290,0.03278
3211.78275,0.03264
3209.85259,0.03251
3207.92243,0.03237
3205.99227,0.03222
3204.06211,0.03208
3202.13196,0.03194
3200.20180,0.03179
3198.27164,0.03164
3196.34148,0.03148
3194.41132,0.03131
3192.48117,0.03114
3190.55101,0.03098
3188.62085,0.03082
3186.69069,0.03067
3184.76053,0.03051
3182.83038,0.03036
3180.90022,0.03020
3178.97006,0.03005
3177.03990,0.02990
3175.10975,0.02976
3173.17959,0.02962
3171.24943,0.02948
3169.31927,0.02934
3167.38911,0.02923
3165.45896,0.02909
3163.52880,0.02897
3161.59864,0.02884
3159.66848,0.02870
3157.73832,0.02855
3155.80817,0.02840
3153.87801,0.02826
3151.94785,0.02811
3150.01769,0.02796
3148.08753,0.02780
3146.15738,0.02763
3144.22722,0.02745
3142.29706,0.02727
3140.36690,0.02710
3138.43675,0.02693
3136.50659,0.02674
3134.57643,0.02656
3132.64627,0.02638
3130.71611,0.02620
3128.78596,0.02603
3126.85580,0.02588
3124.92564,0.02573
3122.99548,0.02559
3121.06532,0.02544
3119.13517,0.02531
3117.20501,0.02520
3115.27485,0.02509
3113.34469,0.02501
3111.41453,0.02493
3109.48438,0.02484
3107.55422,0.02478
3105.62406,0.02471
3103.69390,0.02464
3101.76375,0.02459
3099.83359,0.02455
3097.90343,0.02450
3095.97327,0.02445
3094.04311,0.02442
3092.11296,0.02438
3090.18280,0.02432
3088.25264,0.02426
3086.32248,0.02420
3084.39232,0.02415
3082.46217,0.02408
3080.53201,0.02400
3078.60185,0.02393
3076.67169,0.02387
3074.74153,0.02378
3072.81138,0.02370
3070.88122,0.02363
3068.95106,0.02356
3067.02090,0.02349
3065.09074,0.02341
3063.16059,0.02333
3061.23043,0.02328
3059.30027,0.02320
3057.37011,0.02311
3055.43996,0.02304
3053.50980,0.02296
3051.57964,0.02289
3049.64948,0.02280
3047.71932,0.02269
3045.78917,0.02258
3043.85901,0.02247
3041.92885,0.02236
3039.99869,0.02223
3038.06853,0.02208
3036.13838,0.02194
3034.20822,0.02180
3032.27806,0.02167
3030.34790,0.02154
3028.41774,0.02141
3026.48759,0.02130
3024.55743,0.02118
3022.62727,0.02109
3020.69711,0.02098
3018.76696,0.02088
3016.83680,0.02078
3014.90664,0.02070
3012.97648,0.02063
3011.04632,0.02056
3009.11617,0.02050
3007.18601,0.02042
3005.25585,0.02037
3003.32569,0.02034
3001.39553,0.02028
2999.46538,0.02025
2997.53522,0.02023
2995.60506,0.02021
2993.67490,0.02022
2991.74474,0.02024
2989.81459,0.02029
2987.88443,0.02036
2985.95427,0.02045
2984.02411,0.02057
2982.09396,0.02070
2980.16380,0.02085
2978.23364,0.02101
2976.30348,0.02119
2974.37332,0.02137
2972.44317,0.02157
2970.51301,0.02177
2968.58285,0.02198
2966.65269,0.02218
2964.72253,0.02237
2962.79238,0.02257
2960.86222,0.02276
2958.93206,0.02296
2957.00190,0.02314
2955.07174,0.02335
2953.14159,0.02358
2951.21143,0.02381
2949.28127,0.02405
2947.35111,0.02431
2945.42096,0.02459
2943.49080,0.02489
2941.56064,0.02519
2939.63048,0.02550
2937.70032,0.02580
2935.77017,0.02611
2933.84001,0.02640
2931.90985,0.02667
2929.97969,0.02695
2928.04953,0.02717
2926.11938,0.02736
2924.18922,0.02750
2922.25906,0.02760
2920.32890,0.02766
2918.39874,0.02767
2916.46859,0.02763
2914.53843,0.02755
2912.60827,0.02747
2910.67811,0.02735
2908.74796,0.02722
2906.81780,0.02707
2904.88764,0.02692
2902.95748,0.02677
2901.02732,0.02660
2899.09717,0.02644
2897.16701,0.02631
2895.23685,0.02620
2893.30669,0.02607
2891.37653,0.02595
2889.44638,0.02585
2887.51622,0.02577
2885.58606,0.02570
2883.65590,0.02564
2881.72574,0.02560
2879.79559,0.02558
2877.86543,0.02555
2875.93527,0.02554
2874.00511,0.02553
2872.07495,0.02552
2870.14480,0.02551
2868.21464,0.02550
2866.28448,0.02546
2864.35432,0.02543
2862.42417,0.02538
2860.49401,0.02531
2858.56385,0.02519
2856.63369,0.02508
2854.70353,0.02493
2852.77338,0.02474
2850.84322,0.02452
2848.91306,0.02427
2846.98290,0.02400
2845.05274,0.02371
2843.12259,0.02341
2841.19243,0.02311
2839.26227,0.02281
2837.33211,0.02251
2835.40195,0.02223
2833.47180,0.02198
2831.54164,0.02173
2829.61148,0.02151
2827.68132,0.02132
2825.75117,0.02114
2823.82101,0.02098
2821.89085,0.02083
2819.96069,0.02071
2818.03053,0.02060
2816.10038,0.02050
2814.17022,0.02041
2812.24006,0.02033
2810.30990,0.02027
2808.37974,0.02019
2806.44959,0.02012
2804.51943,0.02004
2802.58927,0.01998
2800.65911,0.01989
2798.72895,0.01981
2796.79880,0.01974
2794.86864,0.01968
2792.93848,0.01962
2791.00832,0.01955
2789.07817,0.01951
2787.14801,0.01946
2785.21785,0.01942
2783.28769,0.01935
2781.35753,0.01931
2779.42738,0.01928
2777.49722,0.01924
2775.56706,0.01921
2773.63690,0.01919
2771.70674,0.01915
2769.77659,0.01912
2767.84643,0.01907
2765.91627,0.01902
2763.98611,0.01898
2762.05595,0.01894
2760.12580,0.01889
2758.19564,0.01885
2756.26548,0.01881
2754.33532,0.01879
2752.40517,0.01874
2750.47501,0.01868
2748.54485,0.01864
2746.61469,0.01861
2744.68453,0.01858
2742.75438,0.01855
2740.82422,0.01852
2738.89406,0.01849
2736.96390,0.01847
2735.03374,0.01844
2733.10359,0.01842
2731.17343,0.01838
2729.24327,0.01836
2727.31311,0.01833
2725.38295,0.01828
2723.45280,0.01825
2721.52264,0.01822
2719.59248,0.01819
2717.66232,0.01816
2715.73217,0.01812
2713.80201,0.01807
2711.87185,0.01803
2709.94169,0.01801
2708.01153,0.01797
2706.08138,0.01793
2704.15122,0.01791
2702.22106,0.01787
2700.29090,0.01784
2698.36074,0.01780
2696.43059,0.01779
2694.50043,0.01777
2692.57027,0.01776
2690.64011,0.01773
2688.70995,0.01770
2686.77980,0.01767
2684.84964,0.01763
2682.91948,0.01763
2680.98932,0.01761
2679.05917,0.01759
2677.12901,0.01756
2675.19885,0.01754
2673.26869,0.01753
2671.33853,0.01751
2669.40838,0.01750
2667.47822,0.01750
2665.54806,0.01748
2663.61790,0.01746
2661.68774,0.01745
2659.75759,0.01743
2657.82743,0.01740
2655.89727,0.01739
2653.96711,0.01737
2652.03695,0.01735
2650.10680,0.01731
2648.17664,0.01730
2646.24648,0.01726
2644.31632,0.01723
2642.38616,0.01721
2640.45601,0.01720
2638.52585,0.01716
2636.59569,0.01713
2634.66553,0.01712
2632.73538,0.01709
2630.80522,0.01705
2628.87506,0.01703
2626.94490,0.01701
2625.01474,0.01697
2623.08459,0.01695
2621.15443,0.01694
2619.22427,0.01690
2617.29411,0.01687
2615.36395,0.01683
2613.43380,0.01680
2611.50364,0.01678
2609.57348,0.01675
2607.64332,0.01672
2605.71316,0.01670
2603.78301,0.01667
2601.85285,0.01664
2599.92269,0.01662
2597.99253,0.01660
2596.06238,0.01658
2594.13222,0.01656
2592.20206,0.01655
2590.27190,0.01653
2588.34174,0.01650
2586.41159,0.01648
2584.48143,0.01646
2582.55127,0.01644
2580.62111,0.01641
2578.69095,0.01638
2576.76080,0.01638
2574.83064,0.01634
2572.90048,0.01630
2570.97032,0.01626
2569.04016,0.01623
2567.11001,0.01621
2565.17985,0.01620
2563.24969,0.01617
2561.31953,0.01615
2559.38938,0.01612
2557.45922,0.01610
2555.52906,0.01609
2553.59890,0.01607
2551.66874,0.01604
2549.73859,0.01602
2547.80843,0.01602
2545.87827,0.01601
2543.94811,0.01600
2542.01795,0.01600
2540.08780,0.01601
2538.15764,0.01600
2536.22748,0.01601
2534.29732,0.01601
2532.36716,0.01603
2530.43701,0.01603
2528.50685,0.01604
2526.57669,0.01605
2524.64653,0.01606
2522.71638,0.01605
2520.78622,0.01604
2518.85606,0.01603
2516.92590,0.01602
2514.99574,0.01600
2513.06559,0.01598
2511.13543,0.01594
2509.20527,0.01589
2507.27511,0.01586
2505.34495,0.01581
2503.41480,0.01576
2501.48464,0.01573
2499.55448,0.01569
2497.62432,0.01565
2495.69416,0.01563
2493.76401,0.01559
2491.83385,0.01555
2489.90369,0.01553
2487.97353,0.01552
2486.04338,0.01549
2484.11322,0.01547
2482.18306,0.01547
2480.25290,0.01546
2478.32274,0.01544
2476.39259,0.01542
2474.46243,0.01541
2472.53227,0.01540
2470.60211,0.01539
2468.67195,0.01540
2466.74180,0.01539
2464.81164,0.01539
2462.88148,0.01539
2460.95132,0.01538
2459.02116,0.01538
2457.09101,0.01538
2455.16085,0.01536
2453.23069,0.01537
2451.30053,0.01537
2449.37037,0.01537
2447.44022,0.01535
2445.51006,0.01532
2443.57990,0.01530
2441.64974,0.01527
2439.71959,0.01523
2437.78943,0.01519
2435.85927,0.01515
2433.92911,0.01510
2431.99895,0.01506
2430.06880,0.01504
2428.13864,0.01500
2426.20848,0.01497
2424.27832,0.01497
2422.34816,0.01495
2420.41801,0.01493
2418.48785,0.01489
2416.55769,0.01483
2414.62753,0.01474
2412.69737,0.01463
2410.76722,0.01450
2408.83706,0.01438
2406.90690,0.01425
2404.97674,0.01413
2403.04659,0.01404
2401.11643,0.01398
2399.18627,0.01403
2397.25611,0.01417
2395.32595,0.01448
2393.39580,0.01500
2391.46564,0.01573
2389.53548,0.01673
2387.60532,0.01800
2385.67516,0.01952
2383.74501,0.02126
2381.81485,0.02317
2379.88469,0.02523
2377.95453,0.02739
2376.02437,0.02960
2374.09422,0.03178
2372.16406,0.03389
2370.23390,0.03586
2368.30374,0.03764
2366.37359,0.03918
2364.44343,0.04044
2362.51327,0.04140
2360.58311,0.04206
2358.65295,0.04243
2356.72280,0.04253
2354.79264,0.04239
2352.86248,0.04207
2350.93232,0.04161
2349.00216,0.04111
2347.07201,0.04059
2345.14185,0.04005
2343.21169,0.03954
2341.28153,0.03903
2339.35137,0.03854
2337.42122,0.03804
2335.49106,0.03754
2333.56090,0.03701
2331.63074,0.03646
2329.70059,0.03586
2327.77043,0.03520
2325.84027,0.03448
2323.91011,0.03367
2321.97995,0.03275
2320.04980,0.03175
2318.11964,0.03065
2316.18948,0.02946
2314.25932,0.02823
2312.32916,0.02698
2310.39901,0.02574
2308.46885,0.02450
2306.53869,0.02333
2304.60853,0.02224
2302.67837,0.02124
2300.74822,0.02033
2298.81806,0.01948
2296.88790,0.01874
2294.95774,0.01807
2293.02759,0.01750
2291.09743,0.01703
2289.16727,0.01663
2287.23711,0.01631
2285.30695,0.01607
2283.37680,0.01588
2281.44664,0.01575
2279.51648,0.01570
2277.58632,0.01567
2275.65616,0.01568
2273.72601,0.01569
2271.79585,0.01572
2269.86569,0.01576
2267.93553,0.01578
2266.00537,0.01579
2264.07522,0.01579
2262.14506,0.01579
2260.21490,0.01579
2258.28474,0.01573
2256.35458,0.01567
2254.42443,0.01562
2252.49427,0.01555
2250.56411,0.01548
2248.63395,0.01541
2246.70380,0.01534
2244.77364,0.01526
2242.84348,0.01523
2240.91332,0.01519
2238.98316,0.01518
2237.05301,0.01519
2235.12285,0.01522
2233.19269,0.01524
2231.26253,0.01529
2229.33237,0.01534
2227.40222,0.01537
2225.47206,0.01538
2223.54190,0.01540
2221.61174,0.01544
2219.68158,0.01548
2217.75143,0.01552
2215.82127,0.01556
2213.89111,0.01561
2211.96095,0.01566
2210.03080,0.01571
2208.10064,0.01575
2206.17048,0.01581
2204.24032,0.01586
2202.31016,0.01589
2200.38001,0.01595
2198.44985,0.01600
2196.51969,0.01606
2194.58953,0.01612
2192.65937,0.01615
2190.72922,0.01617
2188.79906,0.01618
2186.86890,0.01619
2184.93874,0.01616
2183.00858,0.01611
2181.07843,0.01607
2179.14827,0.01603
2177.21811,0.01601
2175.28795,0.01601
2173.35780,0.01601
2171.42764,0.01600
2169.49748,0.01600
2167.56732,0.01599
2165.63716,0.01595
2163.70701,0.01588
2161.77685,0.01580
2159.84669,0.01571
2157.91653,0.01558
2155.98637,0.01546
2154.05622,0.01535
2152.12606,0.01524
2150.19590,0.01513
2148.26574,0.01501
2146.33558,0.01490
2144.40543,0.01481
2142.47527,0.01475
2140.54511,0.01470
2138.61495,0.01466
2136.68480,0.01463
2134.75464,0.01464
2132.82448,0.01467
2130.89432,0.01473
2128.96416,0.01482
2127.03401,0.01489
2125.10385,0.01497
2123.17369,0.01503
2121.24353,0.01508
2119.31337,0.01510
2117.38322,0.01511
2115.45306,0.01512
2113.52290,0.01513
2111.59274,0.01511
2109.66258,0.01510
2107.73243,0.01510
2105.80227,0.01509
2103.87211,0.01510
2101.94195,0.01509
2100.01180,0.01511
2098.08164,0.01510
2096.15148,0.01511
2094.22132,0.01512
2092.29116,0.01515
2090.36101,0.01519
2088.43085,0.01521
2086.50069,0.01526
2084.57053,0.01534
2082.64037,0.01539
2080.71022,0.01542
2078.78006,0.01544
2076.84990,0.01548
2074.91974,0.01550
2072.98958,0.01550
2071.05943,0.01552
2069.12927,0.01554
2067.19911,0.01556
2065.26895,0.01557
2063.33879,0.01560
2061.40864,0.01563
2059.47848,0.01569
2057.54832,0.01575
2055.61816,0.01580
2053.68801,0.01585
2051.75785,0.01592
2049.82769,0.01597
2047.89753,0.01602
2045.96737,0.01608
2044.03722,0.01615
2042.10706,0.01622
2040.17690,0.01629
2038.24674,0.01633
2036.31658,0.01636
2034.38643,0.01637
2032.45627,0.01639
2030.52611,0.01639
2028.59595,0.01638
2026.66579,0.01636
2024.73564,0.01631
2022.80548,0.01626
2020.87532,0.01618
2018.94516,0.01607
2017.01501,0.01596
2015.08485,0.01582
2013.15469,0.01570
2011.22453,0.01556
2009.29437,0.01544
2007.36422,0.01532
2005.43406,0.01521
2003.50390,0.01511
2001.57374,0.01502
1999.64358,0.01495
1997.71343,0.01490
1995.78327,0.01486
1993.85311,0.01483
1991.92295,0.01481
1989.99279,0.01481
1988.06264,0.01483
1986.13248,0.01490
1984.20232,0.01497
1982.27216,0.01505
1980.34201,0.01511
1978.41185,0.01515
1976.48169,0.01516
1974.55153,0.01515
1972.62137,0.01509
1970.69122,0.01501
1968.76106,0.01490
1966.83090,0.01479
1964.90074,0.01466
1962.97058,0.01454
1961.04043,0.01442
1959.11027,0.01429
1957.18011,0.01418
1955.24995,0.01404
1953.31979,0.01391
1951.38964,0.01381
1949.45948,0.01370
1947.52932,0.01358
1945.59916,0.01344
1943.66901,0.01334
1941.73885,0.01324
1939.80869,0.01316
1937.87853,0.01308
1935.94837,0.01300
1934.01822,0.01292
1932.08806,0.01283
1930.15790,0.01275
1928.22774,0.01268
1926.29758,0.01258
1924.36743,0.01246
1922.43727,0.01237
1920.50711,0.01231
1918.57695,0.01225
1916.64679,0.01221
1914.71664,0.01220
1912.78648,0.01221
1910.85632,0.01225
1908.92616,0.01233
1906.99601,0.01243
1905.06585,0.01254
1903.13569,0.01263
1901.20553,0.01270
1899.27537,0.01273
1897.34522,0.01273
1895.41506,0.01270
1893.48490,0.01266
1891.55474,0.01257
1889.62458,0.01246
1887.69443,0.01234
1885.76427,0.01225
1883.83411,0.01216
1881.90395,0.01203
1879.97379,0.01189
1878.04364,0.01172
1876.11348,0.01155
1874.18332,0.01135
1872.25316,0.01116
1870.32300,0.01101
1868.39285,0.01093
1866.46269,0.01093
1864.53253,0.01098
1862.60237,0.01104
1860.67222,0.01106
1858.74206,0.01105
1856.81190,0.01097
1854.88174,0.01083
1852.95158,0.01065
1851.02143,0.01043
1849.09127,0.01018
1847.16111,0.00990
1845.23095,0.00964
1843.30079,0.00946
1841.37064,0.00933
1839.44048,0.00923
1837.51032,0.00912
1835.58016,0.00905
1833.65000,0.00900
1831.71985,0.00898
1829.78969,0.00898
1827.85953,0.00905
1825.92937,0.00918
1823.99922,0.00935
1822.06906,0.00953
1820.13890,0.00967
1818.20874,0.00974
1816.27858,0.00974
1814.34843,0.00969
1812.41827,0.00959
1810.48811,0.00944
1808.55795,0.00924
1806.62779,0.00898
1804.69764,0.00867
1802.76748,0.00831
1800.83732,0.00795
1798.90716,0.00759
1796.97700,0.00722
1795.04685,0.00688
1793.11669,0.00658
1791.18653,0.00636
1789.25637,0.00622
1787.32622,0.00611
1785.39606,0.00605
1783.46590,0.00600
1781.53574,0.00594
1779.60558,0.00585
1777.67543,0.00577
1775.74527,0.00569
1773.81511,0.00563
1771.88495,0.00558
1769.95479,0.00556
1768.02464,0.00551
1766.09448,0.00539
1764.16432,0.00517
1762.23416,0.00487
1760.30400,0.00452
1758.37385,0.00416
1756.44369,0.00380
1754.51353,0.00345
1752.58337,0.00308
1750.65322,0.00272
1748.72306,0.00243
1746.79290,0.00226
1744.86274,0.00218
1742.93258,0.00220
1741.00243,0.00232
1739.07227,0.00251
1737.14211,0.00275
1735.21195,0.00302
1733.28179,0.00331
1731.35164,0.00360
1729.42148,0.00390
1727.49132,0.00418
1725.56116,0.00438
1723.63100,0.00445
1721.70085,0.00435
1719.77069,0.00411
1717.84053,0.00375
1715.91037,0.00337
1713.98022,0.00302
1712.05006,0.00268
1710.11990,0.00232
1708.18974,0.00189
1706.25958,0.00146
1704.32943,0.00109
1702.39927,0.00081
1700.46911,0.00065
1698.53895,0.00067
1696.60879,0.00091
1694.67864,0.00139
1692.74848,0.00205
1690.81832,0.00287
1688.88816,0.00380
1686.95800,0.00482
1685.02785,0.00594
1683.09769,0.00710
1681.16753,0.00831
1679.23737,0.00955
1677.30721,0.01074
1675.37706,0.01185
1673.44690,0.01289
1671.51674,0.01388
1669.58658,0.01484
1667.65643,0.01569
1665.72627,0.01641
1663.79611,0.01695
1661.86595,0.01735
1659.93579,0.01764
1658.00564,0.01785
1656.07548,0.01798
1654.14532,0.01810
1652.21516,0.01828
1650.28500,0.01856
1648.35485,0.01892
1646.42469,0.01932
1644.49453,0.01974
1642.56437,0.02017
1640.63421,0.02055
1638.70406,0.02091
1636.77390,0.02126
1634.84374,0.02162
1632.91358,0.02195
1630.98343,0.02220
1629.05327,0.02235
1627.12311,0.02241
1625.19295,0.02240
1623.26279,0.02233
1621.33264,0.02223
1619.40248,0.02213
1617.47232,0.02200
1615.54216,0.02190
1613.61200,0.02183
1611.68185,0.02180
1609.75169,0.02179
1607.82153,0.02182
1605.89137,0.02188
1603.96121,0.02196
1602.03106,0.02205
1600.10090,0.02217
1598.17074,0.02226
1596.24058,0.02229
1594.31043,0.02222
1592.38027,0.02201
1590.45011,0.02167
1588.51995,0.02115
1586.58979,0.02047
1584.65964,0.01964
1582.72948,0.01873
1580.79932,0.01775
1578.86916,0.01669
1576.93900,0.01562
1575.00885,0.01457
1573.07869,0.01350
1571.14853,0.01240
1569.21837,0.01131
1567.28821,0.01024
1565.35806,0.00921
1563.42790,0.00823
1561.49774,0.00734
1559.56758,0.00658
1557.63743,0.00602
1555.70727,0.00564
1553.77711,0.00537
1551.84695,0.00516
1549.91679,0.00496
1547.98664,0.00477
1546.05648,0.00454
1544.12632,0.00426
1542.19616,0.00399
1540.26600,0.00382
1538.33585,0.00373
1536.40569,0.00365
1534.47553,0.00353
1532.54537,0.00336
1530.61521,0.00314
1528.68506,0.00285
1526.75490,0.00245
1524.82474,0.00198
1522.89458,0.00151
1520.96443,0.00107
1519.03427,0.00073
1517.10411,0.00053
1515.17395,0.00048
1513.24379,0.00055
1511.31364,0.00072
1509.38348,0.00098
1507.45332,0.00132
1505.52316,0.00179
1503.59300,0.00233
1501.66285,0.00293
1499.73269,0.00359
1497.80253,0.00430
1495.87237,0.00510
1493.94221,0.00594
1492.01206,0.00673
1490.08190,0.00744
1488.15174,0.00810
1486.22158,0.00866
1484.29142,0.00909
1482.36127,0.00937
1480.43111,0.00952
1478.50095,0.00960
1476.57079,0.00964
1474.64064,0.00968
1472.71048,0.00980
1470.78032,0.01000
1468.85016,0.01021
1466.92000,0.01041
1464.98985,0.01064
1463.05969,0.01093
1461.12953,0.01132
1459.19937,0.01182
1457.26921,0.01240
1455.33906,0.01308
1453.40890,0.01383
1451.47874,0.01460
1449.54858,0.01532
1447.61842,0.01598
1445.68827,0.01656
1443.75811,0.01702
1441.82795,0.01737
1439.89779,0.01760
1437.96764,0.01770
1436.03748,0.01770
1434.10732,0.01766
1432.17716,0.01757
1430.24700,0.01745
1428.31685,0.01730
1426.38669,0.01711
1424.45653,0.01687
1422.52637,0.01657
1420.59621,0.01622
1418.66606,0.01593
1416.73590,0.01573
1414.80574,0.01559
1412.87558,0.01552
1410.94542,0.01547
1409.01527,0.01544
1407.08511,0.01542
1405.15495,0.01536
1403.22479,0.01531
1401.29464,0.01529
1399.36448,0.01528
1397.43432,0.01534
1395.50416,0.01549
1393.57400,0.01568
1391.64385,0.01593
1389.71369,0.01625
1387.78353,0.01658
1385.85337,0.01692
1383.92321,0.01726
1381.99306,0.01758
1380.06290,0.01790
1378.13274,0.01819
1376.20258,0.01847
1374.27242,0.01874
1372.34227,0.01901
1370.41211,0.01925
1368.48195,0.01942
1366.55179,0.01951
1364.62164,0.01952
1362.69148,0.01949
1360.76132,0.01948
1358.83116,0.01946
1356.90100,0.01944
1354.97085,0.01945
1353.04069,0.01945
1351.11053,0.01948
1349.18037,0.01953
1347.25021,0.01959
1345.32006,0.01965
1343.38990,0.01971
1341.45974,0.01980
1339.52958,0.01995
1337.59942,0.02014
1335.66927,0.02039
1333.73911,0.02066
1331.80895,0.02095
1329.87879,0.02123
1327.94864,0.02148
1326.01848,0.02172
1324.08832,0.02194
1322.15816,0.02208
1320.22800,0.02220
1318.29785,0.02229
1316.36769,0.02234
1314.43753,0.02234
1312.50737,0.02229
1310.57721,0.02215
1308.64706,0.02196
1306.71690,0.02170
1304.78674,0.02139
1302.85658,0.02104
1300.92642,0.02066
1298.99627,0.02025
1297.06611,0.01986
1295.13595,0.01951
1293.20579,0.01917
1291.27564,0.01886
1289.34548,0.01857
1287.41532,0.01829
1285.48516,0.01804
1283.55500,0.01783
1281.62485,0.01764
1279.69469,0.01744
1277.76453,0.01730
1275.83437,0.01718
1273.90421,0.01708
1271.97406,0.01702
1270.04390,0.01700
1268.11374,0.01695
1266.18358,0.01694
1264.25342,0.01696
1262.32327,0.01698
1260.39311,0.01704
1258.46295,0.01709
1256.53279,0.01716
1254.60263,0.01721
1252.67248,0.01728
1250.74232,0.01733
1248.81216,0.01737
1246.88200,0.01737
1244.95185,0.01734
1243.02169,0.01728
1241.09153,0.01719
1239.16137,0.01706
1237.23121,0.01688
1235.30106,0.01665
1233.37090,0.01641
1231.44074,0.01614
1229.51058,0.01585
1227.58042,0.01555
1225.65027,0.01526
1223.72011,0.01499
1221.78995,0.01472
1219.85979,0.01446
1217.92963,0.01420
1215.99948,0.01398
1214.06932,0.01375
1212.13916,0.01354
1210.20900,0.01333
1208.27885,0.01309
1206.34869,0.01284
1204.41853,0.01255
1202.48837,0.01226
1200.55821,0.01195
1198.62806,0.01166
1196.69790,0.01138
1194.76774,0.01114
1192.83758,0.01097
1190.90742,0.01089
1188.97727,0.01091
1187.04711,0.01106
1185.11695,0.01133
1183.18679,0.01170
1181.25663,0.01224
1179.32648,0.01290
1177.39632,0.01366
1175.46616,0.01449
1173.53600,0.01537
1171.60585,0.01627
1169.67569,0.01714
1167.74553,0.01795
1165.81537,0.01868
1163.88521,0.01926
1161.95506,0.01968
1160.02490,0.01994
1158.09474,0.02004
1156.16458,0.01999
1154.23442,0.01979
1152.30427,0.01948
1150.37411,0.01911
1148.44395,0.01868
1146.51379,0.01826
1144.58363,0.01788
1142.65348,0.01760
1140.72332,0.01742
1138.79316,0.01739
1136.86300,0.01752
1134.93285,0.01783
1133.00269,0.01833
1131.07253,0.01901
1129.14237,0.01985
1127.21221,0.02082
1125.28206,0.02192
1123.35190,0.02308
1121.42174,0.02427
1119.49158,0.02546
1117.56142,0.02664
1115.63127,0.02776
1113.70111,0.02877
1111.77095,0.02968
1109.84079,0.03047
1107.91063,0.03112
1105.98048,0.03164
1104.05032,0.03203
1102.12016,0.03229
1100.19000,0.03246
1098.25985,0.03252
1096.32969,0.03253
1094.39953,0.03251
1092.46937,0.03252
1090.53921,0.03256
1088.60906,0.03268
1086.67890,0.03289
1084.74874,0.03321
1082.81858,0.03369
1080.88842,0.03431
1078.95827,0.03505
1077.02811,0.03590
1075.09795,0.03688
1073.16779,0.03794
1071.23763,0.03906
1069.30748,0.04022
1067.37732,0.04140
1065.44716,0.04257
1063.51700,0.04370
1061.58684,0.04475
1059.65669,0.04572
1057.72653,0.04660
1055.79637,0.04736
1053.86621,0.04799
1051.93606,0.04853
1050.00590,0.04897
1048.07574,0.04931
1046.14558,0.04959
1044.21542,0.04982
1042.28527,0.04999
1040.35511,0.05012
1038.42495,0.05021
1036.49479,0.05025
1034.56463,0.05025
1032.63448,0.05020
1030.70432,0.05008
1028.77416,0.04988
1026.84400,0.04963
1024.91384,0.04931
1022.98369,0.04893
1021.05353,0.04848
1019.12337,0.04797
1017.19321,0.04740
1015.26306,0.04679
1013.33290,0.04617
1011.40274,0.04554
1009.47258,0.04492
1007.54242,0.04430
1005.61227,0.04371
1003.68211,0.04314
1001.75195,0.04260
999.82179,0.04209
997.89163,0.04158
995.96148,0.04108
994.03132,0.04057
992.10116,0.04005
990.17100,0.03949
988.24084,0.03891
986.31069,0.03824
984.38053,0.03751
982.45037,0.03668
980.52021,0.03576
978.59006,0.03477
976.65990,0.03368
974.72974,0.03252
972.79958,0.03131
970.86942,0.03005
968.93927,0.02875
967.00911,0.02746
965.07895,0.02617
963.14879,0.02485
961.21863,0.02356
959.28848,0.02230
957.35832,0.02109
955.42816,0.01991
953.49800,0.01880
951.56784,0.01774
949.63769,0.01673
947.70753,0.01579
945.77737,0.01492
943.84721,0.01412
941.91706,0.01337
939.98690,0.01268
938.05674,0.01203
936.12658,0.01142
934.19642,0.01086
932.26627,0.01034
930.33611,0.00987
928.40595,0.00946
926.47579,0.00910
924.54563,0.00879
922.61548,0.00853
920.68532,0.00833
918.75516,0.00816
916.82500,0.00804
914.89484,0.00798
912.96469,0.00796
911.03453,0.00793
909.10437,0.00793
907.17421,0.00795
905.24406,0.00798
903.31390,0.00800
901.38374,0.00798
899.45358,0.00793
897.52342,0.00787
895.59327,0.00776
893.66311,0.00758
891.73295,0.00737
889.80279,0.00711
887.87263,0.00681
885.94248,0.00648
884.01232,0.00612
882.08216,0.00574
880.15200,0.00537
878.22184,0.00499
876.29169,0.00460
874.36153,0.00423
872.43137,0.00387
870.50121,0.00352
868.57105,0.00319
866.64090,0.00289
864.71074,0.00259
862.78058,0.00232
860.85042,0.00208
858.92027,0.00185
856.99011,0.00167
855.05995,0.00150
853.12979,0.00133
851.19963,0.00117
849.26948,0.00102
847.33932,0.00103
845.40916,0.00102
843.47900,0.00103
841.54884,0.00104
839.61869,0.00105
837.68853,0.00103
835.75837,0.00102
833.82821,0.00103
831.89805,0.00102
829.96790,0.00102
828.03774,0.00102
826.10758,0.00104
